 #
 # Subroutine ELSEPA. Elastic scattering of electrons and positrons
 #                    by neutral atoms and positive ions
 #
 # Projectile: electron
 # Kinetic energy = 1.00000E+04 eV = 3.67493E+02 a.u.
 #
 # Element: Si,  Z =  14,  atomic weight = 2.80855E+01 g/mol
 #
 # Nuclear model: Fermi distribution
 #                Average radius = 3.25245E-13 cm
 #                Skin thickness = 5.46000E-14 cm
 #
 # Number of electrons = 14
 #
 # Electron density: Read from file z_014.den   
 #                   Number of data points =  761
 #                   Volume integral = 1.40000E+01
 #
 # Furness-McCarthy exchange potential
 #
 # LDA absorption potential (only electron-hole excitations):
 #                           Delta = 7.80000E-01 eV
 #                            Aabs = 2.00000E+00
 #
 # Correlation-polarization potential (LDA):
 #                           Alpha = 5.38000E-24 cm**3
 #                            Bpol = 2.49374E+01
 #
 # Total elastic cross section = 2.14599E-17 cm**2 = 7.66346E-01 a0**2
 # 1st transport cross section = 2.94227E-19 cm**2 = 1.05070E-02 a0**2
 # 2nd transport cross section = 6.92281E-19 cm**2 = 2.47218E-02 a0**2
 #
 #    Absorption cross section = 1.08504E-17 cm**2 = 3.87476E-01 a0**2
 #   Grand total cross section = 3.23148E-17 cm**2 = 1.15398E+00 a0**2
 #
 #
 # Differential cross section:                       MU=(1-COS(THETA))/2
 #
 #  THETA        MU          DCS          DCS        Sherman      error
 #  (deg)                 (cm**2/sr)   (a0**2/sr)    function
 #----------------------------------------------------------------------
  0.000E+00  0.00000E+00  5.25543E-15  1.87675E+02  0.00000E+00  1.8E-04
  1.000E-04  7.61557E-13  5.25543E-15  1.87675E+02  2.50976E-10  1.8E-04
  1.250E-04  1.18994E-12  5.25543E-15  1.87675E+02  3.13720E-10  1.8E-04
  1.500E-04  1.71346E-12  5.25543E-15  1.87675E+02  3.76464E-10  1.8E-04
  1.750E-04  2.33225E-12  5.25543E-15  1.87675E+02  4.39208E-10  1.8E-04
  2.000E-04  3.04617E-12  5.25543E-15  1.87675E+02  5.01952E-10  1.8E-04
  2.250E-04  3.85530E-12  5.25543E-15  1.87675E+02  5.64695E-10  1.8E-04
  2.500E-04  4.75964E-12  5.25543E-15  1.87675E+02  6.27439E-10  1.8E-04
  2.750E-04  5.75917E-12  5.25543E-15  1.87675E+02  6.90183E-10  1.8E-04
  3.000E-04  6.85391E-12  5.25542E-15  1.87675E+02  7.52927E-10  1.8E-04
  3.250E-04  8.04379E-12  5.25542E-15  1.87675E+02  8.15670E-10  1.8E-04
  3.500E-04  9.32893E-12  5.25542E-15  1.87675E+02  8.78414E-10  1.8E-04
  3.750E-04  1.07092E-11  5.25542E-15  1.87675E+02  9.41157E-10  1.8E-04
  4.000E-04  1.21847E-11  5.25542E-15  1.87675E+02  1.00390E-09  1.8E-04
  4.250E-04  1.37554E-11  5.25542E-15  1.87674E+02  1.06664E-09  1.8E-04
  4.500E-04  1.54213E-11  5.25542E-15  1.87674E+02  1.12939E-09  1.8E-04
  4.750E-04  1.71823E-11  5.25542E-15  1.87674E+02  1.19213E-09  1.8E-04
  5.000E-04  1.90386E-11  5.25542E-15  1.87674E+02  1.25487E-09  1.8E-04
  5.250E-04  2.09900E-11  5.25542E-15  1.87674E+02  1.31762E-09  1.8E-04
  5.500E-04  2.30367E-11  5.25542E-15  1.87674E+02  1.38036E-09  1.8E-04
  5.750E-04  2.51785E-11  5.25541E-15  1.87674E+02  1.44310E-09  1.8E-04
  6.000E-04  2.74156E-11  5.25541E-15  1.87674E+02  1.50584E-09  1.8E-04
  6.250E-04  2.97478E-11  5.25541E-15  1.87674E+02  1.56859E-09  1.8E-04
  6.500E-04  3.21752E-11  5.25541E-15  1.87674E+02  1.63133E-09  1.8E-04
  6.750E-04  3.46979E-11  5.25541E-15  1.87674E+02  1.69407E-09  1.8E-04
  7.000E-04  3.73157E-11  5.25541E-15  1.87674E+02  1.75681E-09  1.8E-04
  7.250E-04  4.00286E-11  5.25541E-15  1.87674E+02  1.81955E-09  1.8E-04
  7.500E-04  4.28368E-11  5.25540E-15  1.87674E+02  1.88230E-09  1.8E-04
  7.750E-04  4.57402E-11  5.25540E-15  1.87674E+02  1.94504E-09  1.8E-04
  8.000E-04  4.87388E-11  5.25540E-15  1.87674E+02  2.00778E-09  1.8E-04
  8.250E-04  5.18325E-11  5.25540E-15  1.87674E+02  2.07052E-09  1.8E-04
  8.500E-04  5.50215E-11  5.25540E-15  1.87674E+02  2.13326E-09  1.8E-04
  8.750E-04  5.83057E-11  5.25539E-15  1.87674E+02  2.19600E-09  1.8E-04
  9.000E-04  6.16850E-11  5.25539E-15  1.87673E+02  2.25874E-09  1.8E-04
  9.250E-04  6.51595E-11  5.25539E-15  1.87673E+02  2.32148E-09  1.8E-04
  9.500E-04  6.87293E-11  5.25539E-15  1.87673E+02  2.38422E-09  1.8E-04
  9.750E-04  7.23943E-11  5.25539E-15  1.87673E+02  2.44696E-09  1.8E-04
  1.000E-03  7.61544E-11  5.25538E-15  1.87673E+02  2.50970E-09  1.8E-04
  1.250E-03  1.18991E-10  5.25536E-15  1.87672E+02  3.13709E-09  1.8E-04
  1.500E-03  1.71347E-10  5.25533E-15  1.87671E+02  3.76445E-09  1.8E-04
  1.750E-03  2.33223E-10  5.25529E-15  1.87670E+02  4.39178E-09  1.8E-04
  2.000E-03  3.04617E-10  5.25525E-15  1.87668E+02  5.01907E-09  1.8E-04
  2.250E-03  3.85531E-10  5.25520E-15  1.87667E+02  5.64632E-09  1.8E-04
  2.500E-03  4.75965E-10  5.25515E-15  1.87665E+02  6.27352E-09  1.8E-04
  2.750E-03  5.75917E-10  5.25509E-15  1.87663E+02  6.90067E-09  1.8E-04
  3.000E-03  6.85389E-10  5.25503E-15  1.87661E+02  7.52776E-09  1.8E-04
  3.250E-03  8.04380E-10  5.25496E-15  1.87658E+02  8.15479E-09  1.8E-04
  3.500E-03  9.32891E-10  5.25489E-15  1.87655E+02  8.78175E-09  1.8E-04
  3.750E-03  1.07092E-09  5.25481E-15  1.87653E+02  9.40864E-09  1.8E-04
  4.000E-03  1.21847E-09  5.25472E-15  1.87649E+02  1.00354E-08  1.8E-04
  4.250E-03  1.37554E-09  5.25463E-15  1.87646E+02  1.06622E-08  1.8E-04
  4.500E-03  1.54213E-09  5.25453E-15  1.87643E+02  1.12888E-08  1.8E-04
  4.750E-03  1.71823E-09  5.25443E-15  1.87639E+02  1.19153E-08  1.8E-04
  5.000E-03  1.90386E-09  5.25432E-15  1.87635E+02  1.25418E-08  1.8E-04
  5.250E-03  2.09900E-09  5.25421E-15  1.87631E+02  1.31681E-08  1.8E-04
  5.500E-03  2.30367E-09  5.25409E-15  1.87627E+02  1.37943E-08  1.8E-04
  5.750E-03  2.51785E-09  5.25397E-15  1.87623E+02  1.44204E-08  1.8E-04
  6.000E-03  2.74156E-09  5.25384E-15  1.87618E+02  1.50464E-08  1.8E-04
  6.250E-03  2.97478E-09  5.25370E-15  1.87613E+02  1.56723E-08  1.8E-04
  6.500E-03  3.21752E-09  5.25356E-15  1.87608E+02  1.62980E-08  1.8E-04
  6.750E-03  3.46978E-09  5.25341E-15  1.87603E+02  1.69236E-08  1.8E-04
  7.000E-03  3.73156E-09  5.25326E-15  1.87597E+02  1.75491E-08  1.8E-04
  7.250E-03  4.00286E-09  5.25310E-15  1.87592E+02  1.81744E-08  1.8E-04
  7.500E-03  4.28368E-09  5.25294E-15  1.87586E+02  1.87995E-08  1.8E-04
  7.750E-03  4.57402E-09  5.25277E-15  1.87580E+02  1.94245E-08  1.8E-04
  8.000E-03  4.87388E-09  5.25260E-15  1.87574E+02  2.00493E-08  1.8E-04
  8.250E-03  5.18326E-09  5.25242E-15  1.87567E+02  2.06740E-08  1.8E-04
  8.500E-03  5.50215E-09  5.25224E-15  1.87561E+02  2.12985E-08  1.8E-04
  8.750E-03  5.83057E-09  5.25205E-15  1.87554E+02  2.19228E-08  1.8E-04
  9.000E-03  6.16850E-09  5.25185E-15  1.87547E+02  2.25469E-08  1.8E-04
  9.250E-03  6.51596E-09  5.25165E-15  1.87540E+02  2.31708E-08  1.7E-04
  9.500E-03  6.87293E-09  5.25144E-15  1.87532E+02  2.37946E-08  1.7E-04
  9.750E-03  7.23942E-09  5.25123E-15  1.87525E+02  2.44181E-08  1.7E-04
  1.000E-02  7.61544E-09  5.25101E-15  1.87517E+02  2.50415E-08  1.7E-04
  1.250E-02  1.18991E-08  5.24853E-15  1.87429E+02  3.12625E-08  1.7E-04
  1.500E-02  1.71347E-08  5.24551E-15  1.87321E+02  3.74575E-08  1.7E-04
  1.750E-02  2.33223E-08  5.24195E-15  1.87193E+02  4.36213E-08  1.7E-04
  2.000E-02  3.04617E-08  5.23785E-15  1.87047E+02  4.97490E-08  1.6E-04
  2.250E-02  3.85531E-08  5.23323E-15  1.86882E+02  5.58356E-08  1.6E-04
  2.500E-02  4.75965E-08  5.22808E-15  1.86698E+02  6.18765E-08  1.6E-04
  2.750E-02  5.75917E-08  5.22241E-15  1.86496E+02  6.78669E-08  1.5E-04
  3.000E-02  6.85389E-08  5.21624E-15  1.86275E+02  7.38023E-08  1.5E-04
  3.250E-02  8.04380E-08  5.20956E-15  1.86037E+02  7.96783E-08  1.5E-04
  3.500E-02  9.32891E-08  5.20239E-15  1.85781E+02  8.54907E-08  1.4E-04
  3.750E-02  1.07092E-07  5.19474E-15  1.85508E+02  9.12355E-08  1.4E-04
  4.000E-02  1.21847E-07  5.18662E-15  1.85218E+02  9.69087E-08  1.3E-04
  4.250E-02  1.37554E-07  5.17803E-15  1.84911E+02  1.02507E-07  1.2E-04
  4.500E-02  1.54213E-07  5.16900E-15  1.84588E+02  1.08026E-07  1.2E-04
  4.750E-02  1.71823E-07  5.15952E-15  1.84250E+02  1.13464E-07  1.1E-04
  5.000E-02  1.90386E-07  5.14961E-15  1.83896E+02  1.18816E-07  1.1E-04
  5.250E-02  2.09900E-07  5.13929E-15  1.83527E+02  1.24081E-07  9.9E-05
  5.500E-02  2.30367E-07  5.12856E-15  1.83144E+02  1.29255E-07  9.2E-05
  5.750E-02  2.51785E-07  5.11745E-15  1.82747E+02  1.34337E-07  8.5E-05
  6.000E-02  2.74156E-07  5.10596E-15  1.82337E+02  1.39325E-07  7.9E-05
  6.250E-02  2.97478E-07  5.09411E-15  1.81914E+02  1.44216E-07  7.2E-05
  6.500E-02  3.21752E-07  5.08190E-15  1.81478E+02  1.49009E-07  6.4E-05
  6.750E-02  3.46978E-07  5.06937E-15  1.81030E+02  1.53703E-07  5.7E-05
  7.000E-02  3.73156E-07  5.05651E-15  1.80571E+02  1.58298E-07  5.0E-05
  7.250E-02  4.00286E-07  5.04335E-15  1.80101E+02  1.62792E-07  4.3E-05
  7.500E-02  4.28368E-07  5.02990E-15  1.79621E+02  1.67185E-07  3.6E-05
  7.750E-02  4.57402E-07  5.01618E-15  1.79131E+02  1.71478E-07  2.9E-05
  8.000E-02  4.87388E-07  5.00219E-15  1.78632E+02  1.75671E-07  2.2E-05
  8.250E-02  5.18325E-07  4.98797E-15  1.78124E+02  1.79764E-07  1.5E-05
  8.500E-02  5.50215E-07  4.97351E-15  1.77607E+02  1.83759E-07  8.6E-06
  8.750E-02  5.83057E-07  4.95884E-15  1.77083E+02  1.87656E-07  2.0E-06
  9.000E-02  6.16850E-07  4.94397E-15  1.76552E+02  1.91457E-07  4.4E-06
  9.250E-02  6.51596E-07  4.92892E-15  1.76015E+02  1.95165E-07  1.1E-05
  9.500E-02  6.87293E-07  4.91370E-15  1.75471E+02  1.98782E-07  1.7E-05
  9.750E-02  7.23942E-07  4.89832E-15  1.74922E+02  2.02309E-07  2.3E-05
  1.000E-01  7.61543E-07  4.88281E-15  1.74368E+02  2.05750E-07  2.8E-05
  1.250E-01  1.18991E-06  4.72320E-15  1.68669E+02  2.36253E-07  6.8E-05
  1.500E-01  1.71347E-06  4.56417E-15  1.62989E+02  2.63110E-07  7.4E-05
  1.750E-01  2.33223E-06  4.41518E-15  1.57669E+02  2.92090E-07  4.8E-05
  2.000E-01  3.04617E-06  4.28136E-15  1.52890E+02  3.28300E-07  4.8E-06
  2.250E-01  3.85531E-06  4.16383E-15  1.48693E+02  3.74293E-07  3.7E-05
  2.500E-01  4.75964E-06  4.06078E-15  1.45013E+02  4.29197E-07  5.9E-05
  2.750E-01  5.75916E-06  3.96890E-15  1.41732E+02  4.89260E-07  5.5E-05
  3.000E-01  6.85388E-06  3.88470E-15  1.38725E+02  5.49511E-07  2.7E-05
  3.250E-01  8.04378E-06  3.80545E-15  1.35895E+02  6.05766E-07  1.1E-05
  3.500E-01  9.32888E-06  3.72964E-15  1.33188E+02  6.56141E-07  4.2E-05
  3.750E-01  1.07092E-05  3.65692E-15  1.30591E+02  7.01558E-07  5.3E-05
  4.000E-01  1.21846E-05  3.58764E-15  1.28117E+02  7.45115E-07  4.1E-05
  4.250E-01  1.37553E-05  3.52236E-15  1.25786E+02  7.90655E-07  1.1E-05
  4.500E-01  1.54212E-05  3.46134E-15  1.23607E+02  8.41124E-07  2.2E-05
  4.750E-01  1.71822E-05  3.40436E-15  1.21572E+02  8.97408E-07  4.5E-05
  5.000E-01  1.90385E-05  3.35076E-15  1.19658E+02  9.58116E-07  4.6E-05
  5.250E-01  2.09899E-05  3.29963E-15  1.17832E+02  1.02034E-06  2.8E-05
  5.500E-01  2.30365E-05  3.25011E-15  1.16064E+02  1.08101E-06  2.4E-06
  5.750E-01  2.51783E-05  3.20163E-15  1.14332E+02  1.13821E-06  3.1E-05
  6.000E-01  2.74153E-05  3.15398E-15  1.12631E+02  1.19192E-06  4.5E-05
  6.250E-01  2.97475E-05  3.10722E-15  1.10961E+02  1.24392E-06  3.9E-05
  6.500E-01  3.21749E-05  3.06159E-15  1.09331E+02  1.29693E-06  1.6E-05
  6.750E-01  3.46974E-05  3.01726E-15  1.07748E+02  1.35338E-06  1.4E-05
  7.000E-01  3.73152E-05  2.97425E-15  1.06212E+02  1.41438E-06  3.6E-05
  7.250E-01  4.00281E-05  2.93236E-15  1.04717E+02  1.47934E-06  4.2E-05
  7.500E-01  4.28362E-05  2.89128E-15  1.03250E+02  1.54631E-06  3.0E-05
  7.750E-01  4.57395E-05  2.85065E-15  1.01799E+02  1.61290E-06  4.2E-06
  8.000E-01  4.87380E-05  2.81023E-15  1.00355E+02  1.67738E-06  2.3E-05
  8.250E-01  5.18317E-05  2.76992E-15  9.89155E+01  1.73938E-06  3.9E-05
  8.500E-01  5.50205E-05  2.72976E-15  9.74816E+01  1.80005E-06  3.8E-05
  8.750E-01  5.83045E-05  2.68992E-15  9.60587E+01  1.86144E-06  2.0E-05
  9.000E-01  6.16838E-05  2.65052E-15  9.46519E+01  1.92564E-06  6.6E-06
  9.250E-01  6.51582E-05  2.61164E-15  9.32634E+01  1.99383E-06  3.0E-05
  9.500E-01  6.87277E-05  2.57324E-15  9.18919E+01  2.06579E-06  4.0E-05
  9.750E-01  7.23925E-05  2.53518E-15  9.05329E+01  2.14013E-06  3.2E-05
  1.000E+00  7.61524E-05  2.49732E-15  8.91808E+01  2.21487E-06  9.8E-06
  1.100E+00  9.21439E-05  2.34657E-15  8.37976E+01  2.50236E-06  2.4E-05
  1.200E+00  1.09658E-04  2.19976E-15  7.85550E+01  2.81926E-06  3.4E-05
  1.300E+00  1.28695E-04  2.05682E-15  7.34503E+01  3.15442E-06  3.8E-05
  1.400E+00  1.49255E-04  1.91796E-15  6.84915E+01  3.50451E-06  3.5E-05
  1.500E+00  1.71338E-04  1.78468E-15  6.37323E+01  3.89060E-06  2.7E-05
  1.600E+00  1.94942E-04  1.65651E-15  5.91549E+01  4.28241E-06  1.4E-05
  1.700E+00  2.20070E-04  1.53501E-15  5.48162E+01  4.71879E-06  1.2E-06
  1.800E+00  2.46720E-04  1.41961E-15  5.06951E+01  5.16185E-06  1.7E-05
  1.900E+00  2.74892E-04  1.31120E-15  4.68238E+01  5.64636E-06  2.9E-05
  2.000E+00  3.04586E-04  1.20947E-15  4.31911E+01  6.14875E-06  3.7E-05
  2.100E+00  3.35803E-04  1.11455E-15  3.98014E+01  6.68038E-06  3.9E-05
  2.200E+00  3.68542E-04  1.02639E-15  3.66531E+01  7.24628E-06  3.4E-05
  2.300E+00  4.02802E-04  9.44558E-16  3.37308E+01  7.82717E-06  2.3E-05
  2.400E+00  4.38585E-04  8.69116E-16  3.10367E+01  8.45581E-06  7.7E-06
  2.500E+00  4.75889E-04  7.99429E-16  2.85481E+01  9.09153E-06  9.7E-06
  2.600E+00  5.14715E-04  7.35477E-16  2.62644E+01  9.77791E-06  2.6E-05
  2.700E+00  5.55063E-04  6.76681E-16  2.41647E+01  1.04754E-05  3.9E-05
  2.800E+00  5.96931E-04  6.22840E-16  2.22420E+01  1.12131E-05  4.5E-05
  2.900E+00  6.40321E-04  5.73549E-16  2.04818E+01  1.19770E-05  4.3E-05
  3.000E+00  6.85233E-04  5.28446E-16  1.88712E+01  1.27615E-05  3.4E-05
  3.100E+00  7.31665E-04  4.87288E-16  1.74014E+01  1.35906E-05  1.9E-05
  3.200E+00  7.79618E-04  4.49640E-16  1.60569E+01  1.44220E-05  6.3E-07
  3.300E+00  8.29092E-04  4.15340E-16  1.48321E+01  1.53080E-05  2.1E-05
  3.400E+00  8.80086E-04  3.83985E-16  1.37123E+01  1.61900E-05  3.8E-05
  3.500E+00  9.32601E-04  3.55413E-16  1.26920E+01  1.71198E-05  4.9E-05
  3.600E+00  9.86636E-04  3.29319E-16  1.17602E+01  1.80564E-05  5.2E-05
  3.700E+00  1.04219E-03  3.05506E-16  1.09098E+01  1.90174E-05  4.6E-05
  3.800E+00  1.09927E-03  2.83776E-16  1.01338E+01  2.00077E-05  3.2E-05
  3.900E+00  1.15786E-03  2.63903E-16  9.42415E+00  2.09934E-05  1.1E-05
  4.000E+00  1.21797E-03  2.45768E-16  8.77652E+00  2.20287E-05  1.2E-05
  4.100E+00  1.27961E-03  2.29150E-16  8.18310E+00  2.30407E-05  3.4E-05
  4.200E+00  1.34276E-03  2.13964E-16  7.64079E+00  2.41057E-05  5.1E-05
  4.300E+00  1.40743E-03  2.00031E-16  7.14323E+00  2.51509E-05  6.0E-05
  4.400E+00  1.47362E-03  1.87263E-16  6.68728E+00  2.62294E-05  5.8E-05
  4.500E+00  1.54133E-03  1.75538E-16  6.26859E+00  2.73137E-05  4.6E-05
  4.600E+00  1.61056E-03  1.64756E-16  5.88356E+00  2.83960E-05  2.6E-05
  4.700E+00  1.68131E-03  1.54847E-16  5.52967E+00  2.95174E-05  1.0E-07
  4.800E+00  1.75357E-03  1.45702E-16  5.20312E+00  3.06051E-05  2.6E-05
  4.900E+00  1.82735E-03  1.37283E-16  4.90248E+00  3.17515E-05  4.9E-05
  5.000E+00  1.90265E-03  1.29495E-16  4.62434E+00  3.28555E-05  6.3E-05
  5.100E+00  1.97947E-03  1.22304E-16  4.36756E+00  3.40095E-05  6.7E-05
  5.200E+00  2.05780E-03  1.15641E-16  4.12963E+00  3.51427E-05  5.9E-05
  5.300E+00  2.13765E-03  1.09467E-16  3.90915E+00  3.62897E-05  4.1E-05
  5.400E+00  2.21902E-03  1.03741E-16  3.70467E+00  3.74576E-05  1.5E-05
  5.500E+00  2.30190E-03  9.84148E-17  3.51446E+00  3.85945E-05  1.4E-05
  5.600E+00  2.38630E-03  9.34683E-17  3.33781E+00  3.97895E-05  4.1E-05
  5.700E+00  2.47222E-03  8.88525E-17  3.17298E+00  4.09268E-05  6.2E-05
  5.800E+00  2.55965E-03  8.45564E-17  3.01956E+00  4.21307E-05  7.2E-05
  5.900E+00  2.64859E-03  8.05391E-17  2.87611E+00  4.32863E-05  6.9E-05
  6.000E+00  2.73905E-03  7.67875E-17  2.74213E+00  4.44799E-05  5.5E-05
  6.100E+00  2.83103E-03  7.32753E-17  2.61671E+00  4.56681E-05  3.1E-05
  6.200E+00  2.92452E-03  6.99823E-17  2.49911E+00  4.68425E-05  6.5E-07
  6.300E+00  3.01952E-03  6.68964E-17  2.38891E+00  4.80646E-05  3.0E-05
  6.400E+00  3.11604E-03  6.39925E-17  2.28521E+00  4.92276E-05  5.6E-05
  6.500E+00  3.21407E-03  6.12668E-17  2.18788E+00  5.04695E-05  7.2E-05
  6.600E+00  3.31362E-03  5.86952E-17  2.09604E+00  5.16421E-05  7.6E-05
  6.700E+00  3.41468E-03  5.62749E-17  2.00961E+00  5.28817E-05  6.7E-05
  6.800E+00  3.51725E-03  5.39886E-17  1.92797E+00  5.40863E-05  4.6E-05
  6.900E+00  3.62133E-03  5.18292E-17  1.85085E+00  5.53070E-05  1.7E-05
  7.000E+00  3.72692E-03  4.97882E-17  1.77797E+00  5.65536E-05  1.5E-05
  7.100E+00  3.83403E-03  4.78538E-17  1.70889E+00  5.77545E-05  4.5E-05
  7.200E+00  3.94265E-03  4.60242E-17  1.64355E+00  5.90341E-05  6.7E-05
  7.300E+00  4.05278E-03  4.42856E-17  1.58147E+00  6.02321E-05  7.8E-05
  7.400E+00  4.16442E-03  4.26386E-17  1.52265E+00  6.15199E-05  7.5E-05
  7.500E+00  4.27757E-03  4.10715E-17  1.46669E+00  6.27403E-05  5.9E-05
  7.600E+00  4.39223E-03  3.95831E-17  1.41354E+00  6.40101E-05  3.2E-05
  7.700E+00  4.50840E-03  3.81665E-17  1.36295E+00  6.52711E-05  4.2E-07
  7.800E+00  4.62608E-03  3.68167E-17  1.31475E+00  6.65106E-05  3.2E-05
  7.900E+00  4.74527E-03  3.55321E-17  1.26887E+00  6.78112E-05  5.9E-05
  8.000E+00  4.86597E-03  3.43047E-17  1.22504E+00  6.90301E-05  7.5E-05
  8.100E+00  4.98817E-03  3.31356E-17  1.18330E+00  7.03489E-05  7.9E-05
  8.200E+00  5.11188E-03  3.20168E-17  1.14334E+00  7.15733E-05  6.9E-05
  8.300E+00  5.23711E-03  3.09491E-17  1.10521E+00  7.28795E-05  4.6E-05
  8.400E+00  5.36383E-03  2.99268E-17  1.06871E+00  7.41368E-05  1.6E-05
  8.500E+00  5.49207E-03  2.89486E-17  1.03377E+00  7.54080E-05  1.7E-05
  8.600E+00  5.62181E-03  2.80122E-17  1.00033E+00  7.67091E-05  4.7E-05
  8.700E+00  5.75306E-03  2.71136E-17  9.68243E-01  7.79447E-05  6.9E-05
  8.800E+00  5.88581E-03  2.62534E-17  9.37528E-01  7.92760E-05  7.8E-05
  8.900E+00  6.02007E-03  2.54265E-17  9.07997E-01  8.04980E-05  7.5E-05
  9.000E+00  6.15583E-03  2.46342E-17  8.79704E-01  8.18270E-05  5.8E-05
  9.100E+00  6.29310E-03  2.38721E-17  8.52488E-01  8.30670E-05  3.1E-05
  9.200E+00  6.43187E-03  2.31405E-17  8.26362E-01  8.43602E-05  1.1E-06
  9.300E+00  6.57214E-03  2.24371E-17  8.01242E-01  8.56395E-05  3.3E-05
  9.400E+00  6.71392E-03  2.17602E-17  7.77071E-01  8.68818E-05  5.9E-05
  9.500E+00  6.85720E-03  2.11099E-17  7.53847E-01  8.81960E-05  7.4E-05
  9.600E+00  7.00198E-03  2.04828E-17  7.31454E-01  8.93992E-05  7.6E-05
  9.700E+00  7.14827E-03  1.98803E-17  7.09939E-01  9.07185E-05  6.5E-05
  9.800E+00  7.29605E-03  1.92989E-17  6.89176E-01  9.19140E-05  4.3E-05
  9.900E+00  7.44534E-03  1.87396E-17  6.69202E-01  9.31982E-05  1.3E-05
  1.000E+01  7.59612E-03  1.81999E-17  6.49932E-01  9.44173E-05  1.8E-05
  1.025E+01  7.97965E-03  1.69336E-17  6.04711E-01  9.74546E-05  2.0E-05
  1.050E+01  8.37255E-03  1.57750E-17  5.63335E-01  1.00439E-04  5.2E-05
  1.075E+01  8.77480E-03  1.47125E-17  5.25394E-01  1.03367E-04  7.0E-05
  1.100E+01  9.18641E-03  1.37365E-17  4.90538E-01  1.06230E-04  6.9E-05
  1.125E+01  9.60736E-03  1.28384E-17  4.58466E-01  1.09013E-04  5.1E-05
  1.150E+01  1.00376E-02  1.20109E-17  4.28917E-01  1.11695E-04  2.1E-05
  1.175E+01  1.04773E-02  1.12477E-17  4.01662E-01  1.14253E-04  1.3E-05
  1.200E+01  1.09262E-02  1.05429E-17  3.76493E-01  1.16667E-04  4.3E-05
  1.225E+01  1.13844E-02  9.89120E-18  3.53221E-01  1.18920E-04  6.0E-05
  1.250E+01  1.18520E-02  9.28780E-18  3.31673E-01  1.21004E-04  6.2E-05
  1.275E+01  1.23288E-02  8.72837E-18  3.11696E-01  1.22915E-04  4.9E-05
  1.300E+01  1.28150E-02  8.20912E-18  2.93153E-01  1.24651E-04  2.5E-05
  1.325E+01  1.33104E-02  7.72676E-18  2.75928E-01  1.26204E-04  3.9E-06
  1.350E+01  1.38150E-02  7.27842E-18  2.59917E-01  1.27564E-04  3.0E-05
  1.375E+01  1.43290E-02  6.86143E-18  2.45026E-01  1.28715E-04  4.7E-05
