 #
 # Subroutine ELSEPA. Elastic scattering of electrons and positrons
 #                    by neutral atoms and positive ions
 #
 # Projectile: electron
 # Kinetic energy = 1.20000E+02 eV = 4.40992E+00 a.u.
 #
 # Element: Si,  Z =  14,  atomic weight = 2.80855E+01 g/mol
 #
 # Nuclear model: Fermi distribution
 #                Average radius = 3.25245E-13 cm
 #                Skin thickness = 5.46000E-14 cm
 #
 # Number of electrons = 14
 #
 # Electron density: Read from file z_014.den   
 #                   Number of data points =  761
 #                   Volume integral = 1.40000E+01
 #
 # Furness-McCarthy exchange potential
 #
 # LDA absorption potential (only electron-hole excitations):
 #                           Delta = 7.80000E-01 eV
 #                            Aabs = 2.00000E+00
 #
 # Correlation-polarization potential (LDA):
 #                           Alpha = 5.38000E-24 cm**3
 #                            Bpol = 2.09165E+00
 #
 # Total elastic cross section = 5.38377E-16 cm**2 = 1.92258E+01 a0**2
 # 1st transport cross section = 1.17538E-16 cm**2 = 4.19735E+00 a0**2
 # 2nd transport cross section = 1.04166E-16 cm**2 = 3.71984E+00 a0**2
 #
 #    Absorption cross section = 5.63033E-16 cm**2 = 2.01063E+01 a0**2
 #   Grand total cross section = 1.10143E-15 cm**2 = 3.93328E+01 a0**2
 #
 #
 # Differential cross section:                       MU=(1-COS(THETA))/2
 #
 #  THETA        MU          DCS          DCS        Sherman      error
 #  (deg)                 (cm**2/sr)   (a0**2/sr)    function
 #----------------------------------------------------------------------
  0.000E+00  0.00000E+00  6.46621E-15  2.30912E+02  0.00000E+00  1.5E-07
  1.000E-04  7.61557E-13  6.46621E-15  2.30912E+02  2.55416E-11  1.5E-07
  1.250E-04  1.18994E-12  6.46621E-15  2.30912E+02  3.19270E-11  1.5E-07
  1.500E-04  1.71346E-12  6.46621E-15  2.30912E+02  3.83124E-11  1.5E-07
  1.750E-04  2.33225E-12  6.46621E-15  2.30912E+02  4.46978E-11  1.5E-07
  2.000E-04  3.04617E-12  6.46621E-15  2.30912E+02  5.10832E-11  1.5E-07
  2.250E-04  3.85530E-12  6.46621E-15  2.30912E+02  5.74686E-11  1.5E-07
  2.500E-04  4.75964E-12  6.46621E-15  2.30912E+02  6.38540E-11  1.5E-07
  2.750E-04  5.75917E-12  6.46621E-15  2.30912E+02  7.02394E-11  1.5E-07
  3.000E-04  6.85391E-12  6.46621E-15  2.30912E+02  7.66248E-11  1.5E-07
  3.250E-04  8.04379E-12  6.46621E-15  2.30912E+02  8.30101E-11  1.5E-07
  3.500E-04  9.32893E-12  6.46621E-15  2.30912E+02  8.93955E-11  1.5E-07
  3.750E-04  1.07092E-11  6.46621E-15  2.30912E+02  9.57809E-11  1.5E-07
  4.000E-04  1.21847E-11  6.46621E-15  2.30912E+02  1.02166E-10  1.5E-07
  4.250E-04  1.37554E-11  6.46621E-15  2.30912E+02  1.08552E-10  1.5E-07
  4.500E-04  1.54213E-11  6.46621E-15  2.30912E+02  1.14937E-10  1.5E-07
  4.750E-04  1.71823E-11  6.46621E-15  2.30912E+02  1.21323E-10  1.5E-07
  5.000E-04  1.90386E-11  6.46621E-15  2.30912E+02  1.27708E-10  1.5E-07
  5.250E-04  2.09900E-11  6.46621E-15  2.30912E+02  1.34093E-10  1.5E-07
  5.500E-04  2.30367E-11  6.46621E-15  2.30912E+02  1.40479E-10  1.5E-07
  5.750E-04  2.51785E-11  6.46621E-15  2.30912E+02  1.46864E-10  1.5E-07
  6.000E-04  2.74156E-11  6.46621E-15  2.30912E+02  1.53249E-10  1.5E-07
  6.250E-04  2.97478E-11  6.46621E-15  2.30912E+02  1.59635E-10  1.5E-07
  6.500E-04  3.21752E-11  6.46621E-15  2.30912E+02  1.66020E-10  1.5E-07
  6.750E-04  3.46979E-11  6.46621E-15  2.30912E+02  1.72406E-10  1.5E-07
  7.000E-04  3.73157E-11  6.46621E-15  2.30912E+02  1.78791E-10  1.5E-07
  7.250E-04  4.00286E-11  6.46621E-15  2.30912E+02  1.85176E-10  1.5E-07
  7.500E-04  4.28368E-11  6.46621E-15  2.30912E+02  1.91562E-10  1.5E-07
  7.750E-04  4.57402E-11  6.46621E-15  2.30912E+02  1.97947E-10  1.5E-07
  8.000E-04  4.87388E-11  6.46621E-15  2.30912E+02  2.04333E-10  1.5E-07
  8.250E-04  5.18325E-11  6.46621E-15  2.30912E+02  2.10718E-10  1.5E-07
  8.500E-04  5.50215E-11  6.46621E-15  2.30912E+02  2.17103E-10  1.5E-07
  8.750E-04  5.83057E-11  6.46621E-15  2.30912E+02  2.23489E-10  1.5E-07
  9.000E-04  6.16850E-11  6.46621E-15  2.30912E+02  2.29874E-10  1.5E-07
  9.250E-04  6.51595E-11  6.46621E-15  2.30912E+02  2.36260E-10  1.5E-07
  9.500E-04  6.87293E-11  6.46621E-15  2.30912E+02  2.42645E-10  1.5E-07
  9.750E-04  7.23943E-11  6.46621E-15  2.30912E+02  2.49030E-10  1.5E-07
  1.000E-03  7.61544E-11  6.46621E-15  2.30912E+02  2.55416E-10  1.5E-07
  1.250E-03  1.18991E-10  6.46621E-15  2.30912E+02  3.19270E-10  1.5E-07
  1.500E-03  1.71347E-10  6.46621E-15  2.30912E+02  3.83123E-10  1.5E-07
  1.750E-03  2.33223E-10  6.46621E-15  2.30912E+02  4.46977E-10  1.5E-07
  2.000E-03  3.04617E-10  6.46621E-15  2.30912E+02  5.10831E-10  1.5E-07
  2.250E-03  3.85531E-10  6.46621E-15  2.30912E+02  5.74684E-10  1.5E-07
  2.500E-03  4.75965E-10  6.46620E-15  2.30912E+02  6.38538E-10  1.5E-07
  2.750E-03  5.75917E-10  6.46620E-15  2.30912E+02  7.02391E-10  1.5E-07
  3.000E-03  6.85389E-10  6.46620E-15  2.30912E+02  7.66244E-10  1.5E-07
  3.250E-03  8.04380E-10  6.46620E-15  2.30912E+02  8.30097E-10  1.5E-07
  3.500E-03  9.32891E-10  6.46620E-15  2.30912E+02  8.93950E-10  1.5E-07
  3.750E-03  1.07092E-09  6.46620E-15  2.30912E+02  9.57803E-10  1.5E-07
  4.000E-03  1.21847E-09  6.46620E-15  2.30912E+02  1.02166E-09  1.5E-07
  4.250E-03  1.37554E-09  6.46620E-15  2.30912E+02  1.08551E-09  1.5E-07
  4.500E-03  1.54213E-09  6.46620E-15  2.30912E+02  1.14936E-09  1.5E-07
  4.750E-03  1.71823E-09  6.46619E-15  2.30912E+02  1.21321E-09  1.5E-07
  5.000E-03  1.90386E-09  6.46619E-15  2.30912E+02  1.27706E-09  1.5E-07
  5.250E-03  2.09900E-09  6.46619E-15  2.30912E+02  1.34092E-09  1.5E-07
  5.500E-03  2.30367E-09  6.46619E-15  2.30912E+02  1.40477E-09  1.5E-07
  5.750E-03  2.51785E-09  6.46619E-15  2.30912E+02  1.46862E-09  1.5E-07
  6.000E-03  2.74156E-09  6.46619E-15  2.30912E+02  1.53247E-09  1.5E-07
  6.250E-03  2.97478E-09  6.46618E-15  2.30912E+02  1.59632E-09  1.5E-07
  6.500E-03  3.21752E-09  6.46618E-15  2.30912E+02  1.66017E-09  1.5E-07
  6.750E-03  3.46978E-09  6.46618E-15  2.30912E+02  1.72402E-09  1.5E-07
  7.000E-03  3.73156E-09  6.46618E-15  2.30911E+02  1.78787E-09  1.5E-07
  7.250E-03  4.00286E-09  6.46618E-15  2.30911E+02  1.85172E-09  1.5E-07
  7.500E-03  4.28368E-09  6.46617E-15  2.30911E+02  1.91557E-09  1.5E-07
  7.750E-03  4.57402E-09  6.46617E-15  2.30911E+02  1.97942E-09  1.5E-07
  8.000E-03  4.87388E-09  6.46617E-15  2.30911E+02  2.04326E-09  1.5E-07
  8.250E-03  5.18326E-09  6.46617E-15  2.30911E+02  2.10711E-09  1.5E-07
  8.500E-03  5.50215E-09  6.46616E-15  2.30911E+02  2.17096E-09  1.5E-07
  8.750E-03  5.83057E-09  6.46616E-15  2.30911E+02  2.23481E-09  1.5E-07
  9.000E-03  6.16850E-09  6.46616E-15  2.30911E+02  2.29865E-09  1.5E-07
  9.250E-03  6.51596E-09  6.46616E-15  2.30911E+02  2.36250E-09  1.5E-07
  9.500E-03  6.87293E-09  6.46615E-15  2.30911E+02  2.42635E-09  1.5E-07
  9.750E-03  7.23942E-09  6.46615E-15  2.30910E+02  2.49019E-09  1.5E-07
  1.000E-02  7.61544E-09  6.46615E-15  2.30910E+02  2.55404E-09  1.5E-07
  1.250E-02  1.18991E-08  6.46611E-15  2.30909E+02  3.19246E-09  1.5E-07
  1.500E-02  1.71347E-08  6.46607E-15  2.30908E+02  3.83083E-09  1.5E-07
  1.750E-02  2.33223E-08  6.46602E-15  2.30906E+02  4.46912E-09  1.5E-07
  2.000E-02  3.04617E-08  6.46597E-15  2.30904E+02  5.10734E-09  1.5E-07
  2.250E-02  3.85531E-08  6.46590E-15  2.30902E+02  5.74547E-09  1.5E-07
  2.500E-02  4.75965E-08  6.46583E-15  2.30899E+02  6.38349E-09  1.5E-07
  2.750E-02  5.75917E-08  6.46575E-15  2.30896E+02  7.02140E-09  1.5E-07
  3.000E-02  6.85389E-08  6.46566E-15  2.30893E+02  7.65918E-09  1.5E-07
  3.250E-02  8.04380E-08  6.46557E-15  2.30890E+02  8.29682E-09  1.5E-07
  3.500E-02  9.32891E-08  6.46547E-15  2.30886E+02  8.93432E-09  1.5E-07
  3.750E-02  1.07092E-07  6.46536E-15  2.30882E+02  9.57166E-09  1.5E-07
  4.000E-02  1.21847E-07  6.46524E-15  2.30878E+02  1.02088E-08  1.5E-07
  4.250E-02  1.37554E-07  6.46512E-15  2.30873E+02  1.08458E-08  1.5E-07
  4.500E-02  1.54213E-07  6.46498E-15  2.30869E+02  1.14826E-08  1.5E-07
  4.750E-02  1.71823E-07  6.46484E-15  2.30864E+02  1.21192E-08  1.5E-07
  5.000E-02  1.90386E-07  6.46470E-15  2.30859E+02  1.27555E-08  1.5E-07
  5.250E-02  2.09900E-07  6.46454E-15  2.30853E+02  1.33917E-08  1.5E-07
  5.500E-02  2.30367E-07  6.46438E-15  2.30847E+02  1.40276E-08  1.5E-07
  5.750E-02  2.51785E-07  6.46421E-15  2.30841E+02  1.46632E-08  1.5E-07
  6.000E-02  2.74156E-07  6.46403E-15  2.30835E+02  1.52986E-08  1.5E-07
  6.250E-02  2.97478E-07  6.46385E-15  2.30828E+02  1.59337E-08  1.5E-07
  6.500E-02  3.21752E-07  6.46366E-15  2.30821E+02  1.65685E-08  1.5E-07
  6.750E-02  3.46978E-07  6.46346E-15  2.30814E+02  1.72030E-08  1.5E-07
  7.000E-02  3.73156E-07  6.46325E-15  2.30807E+02  1.78373E-08  1.5E-07
  7.250E-02  4.00286E-07  6.46303E-15  2.30799E+02  1.84712E-08  1.5E-07
  7.500E-02  4.28368E-07  6.46281E-15  2.30791E+02  1.91047E-08  1.4E-07
  7.750E-02  4.57402E-07  6.46258E-15  2.30783E+02  1.97379E-08  1.4E-07
  8.000E-02  4.87388E-07  6.46234E-15  2.30774E+02  2.03708E-08  1.4E-07
  8.250E-02  5.18325E-07  6.46210E-15  2.30766E+02  2.10033E-08  1.4E-07
  8.500E-02  5.50215E-07  6.46185E-15  2.30757E+02  2.16354E-08  1.4E-07
  8.750E-02  5.83057E-07  6.46159E-15  2.30747E+02  2.22672E-08  1.4E-07
  9.000E-02  6.16850E-07  6.46132E-15  2.30738E+02  2.28985E-08  1.4E-07
  9.250E-02  6.51596E-07  6.46104E-15  2.30728E+02  2.35294E-08  1.4E-07
  9.500E-02  6.87293E-07  6.46076E-15  2.30718E+02  2.41599E-08  1.4E-07
  9.750E-02  7.23942E-07  6.46047E-15  2.30708E+02  2.47900E-08  1.4E-07
  1.000E-01  7.61543E-07  6.46017E-15  2.30697E+02  2.54196E-08  1.4E-07
  1.250E-01  1.18991E-06  6.45679E-15  2.30576E+02  3.16890E-08  1.4E-07
  1.500E-01  1.71347E-06  6.45266E-15  2.30429E+02  3.79014E-08  1.4E-07
  1.750E-01  2.33223E-06  6.44780E-15  2.30255E+02  4.40458E-08  1.4E-07
  2.000E-01  3.04617E-06  6.44220E-15  2.30055E+02  5.01110E-08  1.3E-07
  2.250E-01  3.85531E-06  6.43589E-15  2.29830E+02  5.60861E-08  1.3E-07
  2.500E-01  4.75964E-06  6.42886E-15  2.29579E+02  6.19602E-08  1.3E-07
  2.750E-01  5.75916E-06  6.42113E-15  2.29303E+02  6.77226E-08  1.2E-07
  3.000E-01  6.85388E-06  6.41271E-15  2.29002E+02  7.33628E-08  1.2E-07
  3.250E-01  8.04378E-06  6.40360E-15  2.28677E+02  7.88704E-08  1.1E-07
  3.500E-01  9.32888E-06  6.39383E-15  2.28328E+02  8.42353E-08  1.1E-07
  3.750E-01  1.07092E-05  6.38340E-15  2.27956E+02  8.94475E-08  1.0E-07
  4.000E-01  1.21846E-05  6.37234E-15  2.27560E+02  9.44973E-08  1.0E-07
  4.250E-01  1.37553E-05  6.36064E-15  2.27143E+02  9.93753E-08  1.0E-07
  4.500E-01  1.54212E-05  6.34834E-15  2.26703E+02  1.04072E-07  1.0E-07
  4.750E-01  1.71822E-05  6.33544E-15  2.26243E+02  1.08579E-07  1.0E-07
  5.000E-01  1.90385E-05  6.32197E-15  2.25762E+02  1.12887E-07  1.0E-07
  5.250E-01  2.09899E-05  6.30793E-15  2.25260E+02  1.16989E-07  1.0E-07
  5.500E-01  2.30365E-05  6.29335E-15  2.24740E+02  1.20875E-07  1.0E-07
  5.750E-01  2.51783E-05  6.27825E-15  2.24200E+02  1.24538E-07  1.0E-07
  6.000E-01  2.74153E-05  6.26264E-15  2.23643E+02  1.27972E-07  1.0E-07
  6.250E-01  2.97475E-05  6.24655E-15  2.23068E+02  1.31168E-07  1.0E-07
  6.500E-01  3.21749E-05  6.22999E-15  2.22477E+02  1.34121E-07  1.0E-07
  6.750E-01  3.46974E-05  6.21298E-15  2.21870E+02  1.36824E-07  1.0E-07
  7.000E-01  3.73152E-05  6.19555E-15  2.21247E+02  1.39271E-07  1.0E-07
  7.250E-01  4.00281E-05  6.17771E-15  2.20610E+02  1.41457E-07  1.0E-07
  7.500E-01  4.28362E-05  6.15948E-15  2.19959E+02  1.43376E-07  1.0E-07
  7.750E-01  4.57395E-05  6.14088E-15  2.19295E+02  1.45025E-07  1.0E-07
  8.000E-01  4.87380E-05  6.12194E-15  2.18618E+02  1.46399E-07  1.0E-07
  8.250E-01  5.18317E-05  6.10267E-15  2.17930E+02  1.47493E-07  1.0E-07
  8.500E-01  5.50205E-05  6.08309E-15  2.17231E+02  1.48306E-07  1.0E-07
  8.750E-01  5.83045E-05  6.06323E-15  2.16522E+02  1.48833E-07  1.0E-07
  9.000E-01  6.16838E-05  6.04310E-15  2.15803E+02  1.49073E-07  1.0E-07
  9.250E-01  6.51582E-05  6.02272E-15  2.15075E+02  1.49023E-07  1.0E-07
  9.500E-01  6.87277E-05  6.00212E-15  2.14340E+02  1.48681E-07  1.0E-07
  9.750E-01  7.23925E-05  5.98130E-15  2.13596E+02  1.48047E-07  1.0E-07
  1.000E+00  7.61524E-05  5.96030E-15  2.12846E+02  1.47120E-07  1.0E-07
  1.100E+00  9.21439E-05  5.87475E-15  2.09791E+02  1.40478E-07  1.0E-07
  1.200E+00  1.09658E-04  5.78754E-15  2.06677E+02  1.29186E-07  1.0E-07
  1.300E+00  1.28695E-04  5.69967E-15  2.03539E+02  1.13379E-07  1.0E-07
  1.400E+00  1.49255E-04  5.61197E-15  2.00407E+02  9.32664E-08  1.0E-07
  1.500E+00  1.71338E-04  5.52512E-15  1.97305E+02  6.91094E-08  1.0E-07
  1.600E+00  1.94942E-04  5.43963E-15  1.94253E+02  4.11965E-08  1.0E-07
  1.700E+00  2.20070E-04  5.35588E-15  1.91262E+02  9.81521E-09  1.0E-07
  1.800E+00  2.46720E-04  5.27410E-15  1.88342E+02 -2.47750E-08  1.0E-07
  1.900E+00  2.74892E-04  5.19439E-15  1.85495E+02 -6.23666E-08  1.0E-07
  2.000E+00  3.04586E-04  5.11676E-15  1.82723E+02 -1.02823E-07  1.0E-07
  2.100E+00  3.35803E-04  5.04110E-15  1.80021E+02 -1.46091E-07  1.0E-07
  2.200E+00  3.68542E-04  4.96728E-15  1.77385E+02 -1.92205E-07  1.0E-07
  2.300E+00  4.02802E-04  4.89511E-15  1.74808E+02 -2.41286E-07  1.0E-07
  2.400E+00  4.38585E-04  4.82438E-15  1.72282E+02 -2.93532E-07  1.0E-07
  2.500E+00  4.75889E-04  4.75487E-15  1.69799E+02 -3.49200E-07  1.0E-07
  2.600E+00  5.14715E-04  4.68639E-15  1.67354E+02 -4.08587E-07  1.0E-07
  2.700E+00  5.55063E-04  4.61876E-15  1.64939E+02 -4.72009E-07  1.0E-07
  2.800E+00  5.96931E-04  4.55185E-15  1.62549E+02 -5.39774E-07  1.0E-07
  2.900E+00  6.40321E-04  4.48553E-15  1.60181E+02 -6.12162E-07  1.0E-07
  3.000E+00  6.85233E-04  4.41976E-15  1.57832E+02 -6.89405E-07  1.0E-07
  3.100E+00  7.31665E-04  4.35449E-15  1.55501E+02 -7.71671E-07  1.0E-07
  3.200E+00  7.79618E-04  4.28972E-15  1.53189E+02 -8.59054E-07  1.0E-07
  3.300E+00  8.29092E-04  4.22548E-15  1.50895E+02 -9.51574E-07  1.0E-07
  3.400E+00  8.80086E-04  4.16182E-15  1.48621E+02 -1.04918E-06  1.0E-07
  3.500E+00  9.32601E-04  4.09880E-15  1.46371E+02 -1.15174E-06  1.0E-07
  3.600E+00  9.86636E-04  4.03646E-15  1.44145E+02 -1.25910E-06  1.0E-07
  3.700E+00  1.04219E-03  3.97488E-15  1.41946E+02 -1.37105E-06  1.0E-07
  3.800E+00  1.09927E-03  3.91410E-15  1.39775E+02 -1.48738E-06  1.0E-07
  3.900E+00  1.15786E-03  3.85415E-15  1.37634E+02 -1.60789E-06  1.0E-07
  4.000E+00  1.21797E-03  3.79507E-15  1.35524E+02 -1.73241E-06  1.0E-07
  4.100E+00  1.27961E-03  3.73685E-15  1.33445E+02 -1.86082E-06  1.0E-07
  4.200E+00  1.34276E-03  3.67949E-15  1.31397E+02 -1.99308E-06  1.0E-07
  4.300E+00  1.40743E-03  3.62296E-15  1.29378E+02 -2.12919E-06  1.0E-07
  4.400E+00  1.47362E-03  3.56723E-15  1.27388E+02 -2.26925E-06  1.0E-07
  4.500E+00  1.54133E-03  3.51226E-15  1.25425E+02 -2.41341E-06  1.0E-07
  4.600E+00  1.61056E-03  3.45800E-15  1.23487E+02 -2.56191E-06  1.0E-07
  4.700E+00  1.68131E-03  3.40441E-15  1.21574E+02 -2.71500E-06  1.0E-07
  4.800E+00  1.75357E-03  3.35143E-15  1.19682E+02 -2.87299E-06  1.0E-07
  4.900E+00  1.82735E-03  3.29904E-15  1.17811E+02 -3.03616E-06  1.0E-07
  5.000E+00  1.90265E-03  3.24720E-15  1.15960E+02 -3.20480E-06  1.0E-07
  5.100E+00  1.97947E-03  3.19588E-15  1.14127E+02 -3.37916E-06  1.0E-07
  5.200E+00  2.05780E-03  3.14508E-15  1.12313E+02 -3.55944E-06  1.0E-07
  5.300E+00  2.13765E-03  3.09479E-15  1.10517E+02 -3.74578E-06  1.0E-07
  5.400E+00  2.21902E-03  3.04501E-15  1.08739E+02 -3.93827E-06  1.0E-07
  5.500E+00  2.30190E-03  2.99575E-15  1.06980E+02 -4.13690E-06  1.0E-07
  5.600E+00  2.38630E-03  2.94702E-15  1.05240E+02 -4.34162E-06  1.0E-07
  5.700E+00  2.47222E-03  2.89885E-15  1.03520E+02 -4.55234E-06  1.0E-07
  5.800E+00  2.55965E-03  2.85125E-15  1.01820E+02 -4.76893E-06  1.0E-07
  5.900E+00  2.64859E-03  2.80423E-15  1.00141E+02 -4.99123E-06  1.0E-07
  6.000E+00  2.73905E-03  2.75782E-15  9.84834E+01 -5.21912E-06  1.0E-07
  6.100E+00  2.83103E-03  2.71200E-15  9.68474E+01 -5.45248E-06  1.0E-07
  6.200E+00  2.92452E-03  2.66680E-15  9.52331E+01 -5.69125E-06  1.0E-07
  6.300E+00  3.01952E-03  2.62220E-15  9.36405E+01 -5.93541E-06  1.0E-07
  6.400E+00  3.11604E-03  2.57820E-15  9.20694E+01 -6.18504E-06  1.0E-07
  6.500E+00  3.21407E-03  2.53480E-15  9.05192E+01 -6.44028E-06  1.0E-07
  6.600E+00  3.31362E-03  2.49196E-15  8.89896E+01 -6.70132E-06  1.0E-07
  6.700E+00  3.41468E-03  2.44969E-15  8.74799E+01 -6.96845E-06  1.0E-07
  6.800E+00  3.51725E-03  2.40795E-15  8.59896E+01 -7.24197E-06  1.0E-07
  6.900E+00  3.62133E-03  2.36675E-15  8.45180E+01 -7.52225E-06  1.0E-07
  7.000E+00  3.72692E-03  2.32605E-15  8.30647E+01 -7.80965E-06  1.0E-07
  7.100E+00  3.83403E-03  2.28585E-15  8.16290E+01 -8.10453E-06  1.0E-07
  7.200E+00  3.94265E-03  2.24613E-15  8.02109E+01 -8.40721E-06  1.0E-07
  7.300E+00  4.05278E-03  2.20690E-15  7.88099E+01 -8.71798E-06  1.0E-07
  7.400E+00  4.16442E-03  2.16815E-15  7.74260E+01 -9.03707E-06  1.0E-07
  7.500E+00  4.27757E-03  2.12987E-15  7.60592E+01 -9.36465E-06  1.0E-07
  7.600E+00  4.39223E-03  2.09208E-15  7.47096E+01 -9.70080E-06  1.0E-07
  7.700E+00  4.50840E-03  2.05478E-15  7.33774E+01 -1.00456E-05  1.0E-07
  7.800E+00  4.62608E-03  2.01796E-15  7.20628E+01 -1.03990E-05  1.0E-07
  7.900E+00  4.74527E-03  1.98165E-15  7.07660E+01 -1.07609E-05  1.0E-07
  8.000E+00  4.86597E-03  1.94584E-15  6.94872E+01 -1.11313E-05  1.0E-07
  8.100E+00  4.98817E-03  1.91054E-15  6.82265E+01 -1.15102E-05  1.0E-07
  8.200E+00  5.11188E-03  1.87575E-15  6.69841E+01 -1.18974E-05  1.0E-07
  8.300E+00  5.23711E-03  1.84147E-15  6.57599E+01 -1.22931E-05  1.0E-07
  8.400E+00  5.36383E-03  1.80770E-15  6.45540E+01 -1.26973E-05  1.0E-07
  8.500E+00  5.49207E-03  1.77443E-15  6.33661E+01 -1.31101E-05  1.0E-07
  8.600E+00  5.62181E-03  1.74167E-15  6.21961E+01 -1.35319E-05  1.0E-07
  8.700E+00  5.75306E-03  1.70940E-15  6.10436E+01 -1.39628E-05  1.0E-07
  8.800E+00  5.88581E-03  1.67761E-15  5.99085E+01 -1.44032E-05  1.0E-07
  8.900E+00  6.02007E-03  1.64630E-15  5.87904E+01 -1.48537E-05  1.0E-07
  9.000E+00  6.15583E-03  1.61545E-15  5.76889E+01 -1.53147E-05  1.0E-07
  9.100E+00  6.29310E-03  1.58507E-15  5.66038E+01 -1.57867E-05  1.0E-07
  9.200E+00  6.43187E-03  1.55513E-15  5.55348E+01 -1.62701E-05  1.0E-07
  9.300E+00  6.57214E-03  1.52564E-15  5.44817E+01 -1.67655E-05  1.0E-07
  9.400E+00  6.71392E-03  1.49659E-15  5.34443E+01 -1.72733E-05  1.0E-07
  9.500E+00  6.85720E-03  1.46798E-15  5.24225E+01 -1.77939E-05  1.0E-07
  9.600E+00  7.00198E-03  1.43980E-15  5.14162E+01 -1.83275E-05  1.0E-07
  9.700E+00  7.14827E-03  1.41205E-15  5.04254E+01 -1.88743E-05  1.0E-07
  9.800E+00  7.29605E-03  1.38474E-15  4.94500E+01 -1.94347E-05  1.0E-07
  9.900E+00  7.44534E-03  1.35786E-15  4.84902E+01 -2.00085E-05  1.0E-07
  1.000E+01  7.59612E-03  1.33142E-15  4.75459E+01 -2.05960E-05  1.0E-07
  1.025E+01  7.97965E-03  1.26721E-15  4.52529E+01 -2.21245E-05  1.0E-07
  1.050E+01  8.37255E-03  1.20570E-15  4.30562E+01 -2.37399E-05  1.0E-07
  1.075E+01  8.77480E-03  1.14682E-15  4.09538E+01 -2.54456E-05  1.0E-07
  1.100E+01  9.18641E-03  1.09050E-15  3.89426E+01 -2.72488E-05  1.0E-07
  1.125E+01  9.60736E-03  1.03663E-15  3.70187E+01 -2.91595E-05  1.0E-07
  1.150E+01  1.00376E-02  9.85102E-16  3.51786E+01 -3.11887E-05  1.0E-07
  1.175E+01  1.04773E-02  9.35847E-16  3.34197E+01 -3.33459E-05  1.0E-07
  1.200E+01  1.09262E-02  8.88810E-16  3.17400E+01 -3.56380E-05  1.0E-07
  1.225E+01  1.13844E-02  8.43950E-16  3.01380E+01 -3.80692E-05  1.0E-07
  1.250E+01  1.18520E-02  8.01224E-16  2.86122E+01 -4.06428E-05  1.0E-07
  1.275E+01  1.23288E-02  7.60572E-16  2.71605E+01 -4.33637E-05  1.0E-07
  1.300E+01  1.28150E-02  7.21915E-16  2.57800E+01 -4.62408E-05  1.0E-07
  1.325E+01  1.33104E-02  6.85163E-16  2.44676E+01 -4.92869E-05  1.0E-07
  1.350E+01  1.38150E-02  6.50225E-16  2.32200E+01 -5.25172E-05  1.0E-07
  1.375E+01  1.43290E-02  6.17022E-16  2.20343E+01 -5.59464E-05  1.0E-07
