 #
 # Subroutine ELSEPA. Elastic scattering of electrons and positrons
 #                    by neutral atoms and positive ions
 #
 # Projectile: electron
 # Kinetic energy = 4.50000E+03 eV = 1.65372E+02 a.u.
 #
 # Element: Si,  Z =  14,  atomic weight = 2.80855E+01 g/mol
 #
 # Nuclear model: Fermi distribution
 #                Average radius = 3.25245E-13 cm
 #                Skin thickness = 5.46000E-14 cm
 #
 # Number of electrons = 14
 #
 # Electron density: Read from file z_014.den   
 #                   Number of data points =  761
 #                   Volume integral = 1.40000E+01
 #
 # Furness-McCarthy exchange potential
 #
 # LDA absorption potential (only electron-hole excitations):
 #                           Delta = 7.80000E-01 eV
 #                            Aabs = 2.00000E+00
 #
 # Correlation-polarization potential (LDA):
 #                           Alpha = 5.38000E-24 cm**3
 #                            Bpol = 1.66771E+01
 #
 # Total elastic cross section = 4.28478E-17 cm**2 = 1.53012E+00 a0**2
 # 1st transport cross section = 1.12710E-18 cm**2 = 4.02494E-02 a0**2
 # 2nd transport cross section = 2.47265E-18 cm**2 = 8.82998E-02 a0**2
 #
 #    Absorption cross section = 2.33831E-17 cm**2 = 8.35026E-01 a0**2
 #   Grand total cross section = 6.62359E-17 cm**2 = 2.36533E+00 a0**2
 #
 #
 # Differential cross section:                       MU=(1-COS(THETA))/2
 #
 #  THETA        MU          DCS          DCS        Sherman      error
 #  (deg)                 (cm**2/sr)   (a0**2/sr)    function
 #----------------------------------------------------------------------
  0.000E+00  0.00000E+00  5.51008E-15  1.96769E+02  0.00000E+00  3.7E-04
  1.000E-04  7.61557E-13  5.51008E-15  1.96769E+02  2.35741E-10  3.7E-04
  1.250E-04  1.18994E-12  5.51008E-15  1.96769E+02  2.94676E-10  3.7E-04
  1.500E-04  1.71346E-12  5.51008E-15  1.96769E+02  3.53611E-10  3.7E-04
  1.750E-04  2.33225E-12  5.51008E-15  1.96769E+02  4.12547E-10  3.7E-04
  2.000E-04  3.04617E-12  5.51008E-15  1.96768E+02  4.71482E-10  3.7E-04
  2.250E-04  3.85530E-12  5.51008E-15  1.96768E+02  5.30417E-10  3.7E-04
  2.500E-04  4.75964E-12  5.51008E-15  1.96768E+02  5.89352E-10  3.7E-04
  2.750E-04  5.75917E-12  5.51008E-15  1.96768E+02  6.48287E-10  3.7E-04
  3.000E-04  6.85391E-12  5.51008E-15  1.96768E+02  7.07222E-10  3.7E-04
  3.250E-04  8.04379E-12  5.51008E-15  1.96768E+02  7.66157E-10  3.7E-04
  3.500E-04  9.32893E-12  5.51008E-15  1.96768E+02  8.25093E-10  3.7E-04
  3.750E-04  1.07092E-11  5.51008E-15  1.96768E+02  8.84028E-10  3.7E-04
  4.000E-04  1.21847E-11  5.51008E-15  1.96768E+02  9.42963E-10  3.7E-04
  4.250E-04  1.37554E-11  5.51008E-15  1.96768E+02  1.00190E-09  3.7E-04
  4.500E-04  1.54213E-11  5.51008E-15  1.96768E+02  1.06083E-09  3.7E-04
  4.750E-04  1.71823E-11  5.51008E-15  1.96768E+02  1.11977E-09  3.7E-04
  5.000E-04  1.90386E-11  5.51007E-15  1.96768E+02  1.17870E-09  3.7E-04
  5.250E-04  2.09900E-11  5.51007E-15  1.96768E+02  1.23764E-09  3.7E-04
  5.500E-04  2.30367E-11  5.51007E-15  1.96768E+02  1.29657E-09  3.7E-04
  5.750E-04  2.51785E-11  5.51007E-15  1.96768E+02  1.35551E-09  3.7E-04
  6.000E-04  2.74156E-11  5.51007E-15  1.96768E+02  1.41444E-09  3.7E-04
  6.250E-04  2.97478E-11  5.51007E-15  1.96768E+02  1.47338E-09  3.7E-04
  6.500E-04  3.21752E-11  5.51007E-15  1.96768E+02  1.53231E-09  3.7E-04
  6.750E-04  3.46979E-11  5.51007E-15  1.96768E+02  1.59125E-09  3.7E-04
  7.000E-04  3.73157E-11  5.51007E-15  1.96768E+02  1.65018E-09  3.7E-04
  7.250E-04  4.00286E-11  5.51007E-15  1.96768E+02  1.70912E-09  3.7E-04
  7.500E-04  4.28368E-11  5.51007E-15  1.96768E+02  1.76805E-09  3.7E-04
  7.750E-04  4.57402E-11  5.51007E-15  1.96768E+02  1.82699E-09  3.7E-04
  8.000E-04  4.87388E-11  5.51007E-15  1.96768E+02  1.88592E-09  3.7E-04
  8.250E-04  5.18325E-11  5.51007E-15  1.96768E+02  1.94485E-09  3.7E-04
  8.500E-04  5.50215E-11  5.51006E-15  1.96768E+02  2.00379E-09  3.7E-04
  8.750E-04  5.83057E-11  5.51006E-15  1.96768E+02  2.06272E-09  3.7E-04
  9.000E-04  6.16850E-11  5.51006E-15  1.96768E+02  2.12166E-09  3.7E-04
  9.250E-04  6.51595E-11  5.51006E-15  1.96768E+02  2.18059E-09  3.7E-04
  9.500E-04  6.87293E-11  5.51006E-15  1.96768E+02  2.23953E-09  3.7E-04
  9.750E-04  7.23943E-11  5.51006E-15  1.96768E+02  2.29846E-09  3.7E-04
  1.000E-03  7.61544E-11  5.51006E-15  1.96768E+02  2.35740E-09  3.7E-04
  1.250E-03  1.18991E-10  5.51005E-15  1.96767E+02  2.94674E-09  3.7E-04
  1.500E-03  1.71347E-10  5.51003E-15  1.96767E+02  3.53607E-09  3.7E-04
  1.750E-03  2.33223E-10  5.51002E-15  1.96766E+02  4.12539E-09  3.7E-04
  2.000E-03  3.04617E-10  5.51000E-15  1.96766E+02  4.71471E-09  3.7E-04
  2.250E-03  3.85531E-10  5.50997E-15  1.96765E+02  5.30402E-09  3.7E-04
  2.500E-03  4.75965E-10  5.50995E-15  1.96764E+02  5.89331E-09  3.7E-04
  2.750E-03  5.75917E-10  5.50992E-15  1.96763E+02  6.48260E-09  3.7E-04
  3.000E-03  6.85389E-10  5.50989E-15  1.96762E+02  7.07187E-09  3.7E-04
  3.250E-03  8.04380E-10  5.50986E-15  1.96761E+02  7.66112E-09  3.7E-04
  3.500E-03  9.32891E-10  5.50982E-15  1.96759E+02  8.25036E-09  3.7E-04
  3.750E-03  1.07092E-09  5.50978E-15  1.96758E+02  8.83958E-09  3.7E-04
  4.000E-03  1.21847E-09  5.50974E-15  1.96756E+02  9.42878E-09  3.7E-04
  4.250E-03  1.37554E-09  5.50970E-15  1.96755E+02  1.00180E-08  3.7E-04
  4.500E-03  1.54213E-09  5.50965E-15  1.96753E+02  1.06071E-08  3.7E-04
  4.750E-03  1.71823E-09  5.50960E-15  1.96752E+02  1.11963E-08  3.7E-04
  5.000E-03  1.90386E-09  5.50955E-15  1.96750E+02  1.17854E-08  3.7E-04
  5.250E-03  2.09900E-09  5.50950E-15  1.96748E+02  1.23745E-08  3.7E-04
  5.500E-03  2.30367E-09  5.50944E-15  1.96746E+02  1.29635E-08  3.7E-04
  5.750E-03  2.51785E-09  5.50938E-15  1.96744E+02  1.35526E-08  3.7E-04
  6.000E-03  2.74156E-09  5.50932E-15  1.96741E+02  1.41416E-08  3.7E-04
  6.250E-03  2.97478E-09  5.50925E-15  1.96739E+02  1.47305E-08  3.7E-04
  6.500E-03  3.21752E-09  5.50919E-15  1.96737E+02  1.53195E-08  3.7E-04
  6.750E-03  3.46978E-09  5.50912E-15  1.96734E+02  1.59084E-08  3.7E-04
  7.000E-03  3.73156E-09  5.50904E-15  1.96732E+02  1.64973E-08  3.7E-04
  7.250E-03  4.00286E-09  5.50897E-15  1.96729E+02  1.70861E-08  3.7E-04
  7.500E-03  4.28368E-09  5.50889E-15  1.96726E+02  1.76749E-08  3.7E-04
  7.750E-03  4.57402E-09  5.50881E-15  1.96723E+02  1.82637E-08  3.7E-04
  8.000E-03  4.87388E-09  5.50873E-15  1.96720E+02  1.88524E-08  3.7E-04
  8.250E-03  5.18326E-09  5.50864E-15  1.96717E+02  1.94411E-08  3.7E-04
  8.500E-03  5.50215E-09  5.50855E-15  1.96714E+02  2.00298E-08  3.7E-04
  8.750E-03  5.83057E-09  5.50846E-15  1.96711E+02  2.06184E-08  3.7E-04
  9.000E-03  6.16850E-09  5.50837E-15  1.96707E+02  2.12070E-08  3.7E-04
  9.250E-03  6.51596E-09  5.50827E-15  1.96704E+02  2.17955E-08  3.7E-04
  9.500E-03  6.87293E-09  5.50817E-15  1.96700E+02  2.23840E-08  3.7E-04
  9.750E-03  7.23942E-09  5.50807E-15  1.96697E+02  2.29724E-08  3.7E-04
  1.000E-02  7.61544E-09  5.50797E-15  1.96693E+02  2.35608E-08  3.7E-04
  1.250E-02  1.18991E-08  5.50678E-15  1.96651E+02  2.94416E-08  3.6E-04
  1.500E-02  1.71347E-08  5.50533E-15  1.96599E+02  3.53162E-08  3.6E-04
  1.750E-02  2.33223E-08  5.50362E-15  1.96538E+02  4.11833E-08  3.6E-04
  2.000E-02  3.04617E-08  5.50166E-15  1.96468E+02  4.70418E-08  3.6E-04
  2.250E-02  3.85531E-08  5.49943E-15  1.96388E+02  5.28904E-08  3.5E-04
  2.500E-02  4.75965E-08  5.49694E-15  1.96299E+02  5.87280E-08  3.5E-04
  2.750E-02  5.75917E-08  5.49420E-15  1.96201E+02  6.45532E-08  3.5E-04
  3.000E-02  6.85389E-08  5.49120E-15  1.96094E+02  7.03651E-08  3.4E-04
  3.250E-02  8.04380E-08  5.48795E-15  1.95978E+02  7.61623E-08  3.4E-04
  3.500E-02  9.32891E-08  5.48445E-15  1.95853E+02  8.19439E-08  3.3E-04
  3.750E-02  1.07092E-07  5.48069E-15  1.95719E+02  8.77086E-08  3.3E-04
  4.000E-02  1.21847E-07  5.47670E-15  1.95576E+02  9.34555E-08  3.2E-04
  4.250E-02  1.37554E-07  5.47245E-15  1.95425E+02  9.91833E-08  3.2E-04
  4.500E-02  1.54213E-07  5.46797E-15  1.95265E+02  1.04891E-07  3.1E-04
  4.750E-02  1.71823E-07  5.46324E-15  1.95096E+02  1.10578E-07  3.1E-04
  5.000E-02  1.90386E-07  5.45828E-15  1.94919E+02  1.16243E-07  3.0E-04
  5.250E-02  2.09900E-07  5.45309E-15  1.94733E+02  1.21884E-07  2.9E-04
  5.500E-02  2.30367E-07  5.44766E-15  1.94539E+02  1.27502E-07  2.8E-04
  5.750E-02  2.51785E-07  5.44200E-15  1.94337E+02  1.33095E-07  2.8E-04
  6.000E-02  2.74156E-07  5.43612E-15  1.94128E+02  1.38662E-07  2.7E-04
  6.250E-02  2.97478E-07  5.43002E-15  1.93910E+02  1.44203E-07  2.6E-04
  6.500E-02  3.21752E-07  5.42370E-15  1.93684E+02  1.49716E-07  2.5E-04
  6.750E-02  3.46978E-07  5.41717E-15  1.93451E+02  1.55201E-07  2.5E-04
  7.000E-02  3.73156E-07  5.41042E-15  1.93210E+02  1.60657E-07  2.4E-04
  7.250E-02  4.00286E-07  5.40347E-15  1.92961E+02  1.66084E-07  2.3E-04
  7.500E-02  4.28368E-07  5.39631E-15  1.92706E+02  1.71480E-07  2.2E-04
  7.750E-02  4.57402E-07  5.38895E-15  1.92443E+02  1.76846E-07  2.1E-04
  8.000E-02  4.87388E-07  5.38140E-15  1.92173E+02  1.82180E-07  2.0E-04
  8.250E-02  5.18325E-07  5.37366E-15  1.91897E+02  1.87482E-07  1.9E-04
  8.500E-02  5.50215E-07  5.36573E-15  1.91614E+02  1.92752E-07  1.8E-04
  8.750E-02  5.83057E-07  5.35761E-15  1.91324E+02  1.97989E-07  1.7E-04
  9.000E-02  6.16850E-07  5.34932E-15  1.91028E+02  2.03192E-07  1.6E-04
  9.250E-02  6.51596E-07  5.34085E-15  1.90725E+02  2.08362E-07  1.5E-04
  9.500E-02  6.87293E-07  5.33221E-15  1.90417E+02  2.13498E-07  1.5E-04
  9.750E-02  7.23942E-07  5.32340E-15  1.90102E+02  2.18600E-07  1.4E-04
  1.000E-01  7.61543E-07  5.31443E-15  1.89782E+02  2.23668E-07  1.3E-04
  1.250E-01  1.18991E-06  5.21689E-15  1.86299E+02  2.72444E-07  2.9E-05
  1.500E-01  1.71347E-06  5.10835E-15  1.82422E+02  3.17938E-07  5.7E-05
  1.750E-01  2.33223E-06  4.99346E-15  1.78320E+02  3.60797E-07  1.2E-04
  2.000E-01  3.04617E-06  4.87650E-15  1.74143E+02  4.02129E-07  1.5E-04
  2.250E-01  3.85531E-06  4.76105E-15  1.70020E+02  4.43368E-07  1.6E-04
  2.500E-01  4.75964E-06  4.64987E-15  1.66050E+02  4.86061E-07  1.3E-04
  2.750E-01  5.75916E-06  4.54479E-15  1.62297E+02  5.31623E-07  7.5E-05
  3.000E-01  6.85388E-06  4.44676E-15  1.58797E+02  5.81100E-07  1.3E-05
  3.250E-01  8.04378E-06  4.35595E-15  1.55554E+02  6.34985E-07  4.8E-05
  3.500E-01  9.32888E-06  4.27197E-15  1.52555E+02  6.93147E-07  9.6E-05
  3.750E-01  1.07092E-05  4.19400E-15  1.49770E+02  7.54876E-07  1.2E-04
  4.000E-01  1.21846E-05  4.12100E-15  1.47164E+02  8.19028E-07  1.2E-04
  4.250E-01  1.37553E-05  4.05195E-15  1.44698E+02  8.84251E-07  1.0E-04
  4.500E-01  1.54212E-05  3.98591E-15  1.42340E+02  9.49230E-07  5.9E-05
  4.750E-01  1.71822E-05  3.92217E-15  1.40063E+02  1.01292E-06  7.2E-06
  5.000E-01  1.90385E-05  3.86024E-15  1.37852E+02  1.07470E-06  4.5E-05
  5.250E-01  2.09899E-05  3.79991E-15  1.35697E+02  1.13447E-06  8.6E-05
  5.500E-01  2.30365E-05  3.74117E-15  1.33600E+02  1.19264E-06  1.1E-04
  5.750E-01  2.51783E-05  3.68412E-15  1.31562E+02  1.25000E-06  1.1E-04
  6.000E-01  2.74153E-05  3.62894E-15  1.29592E+02  1.30757E-06  8.9E-05
  6.250E-01  2.97475E-05  3.57582E-15  1.27695E+02  1.36641E-06  5.0E-05
  6.500E-01  3.21749E-05  3.52483E-15  1.25874E+02  1.42739E-06  3.4E-06
  6.750E-01  3.46974E-05  3.47601E-15  1.24131E+02  1.49102E-06  4.3E-05
  7.000E-01  3.73152E-05  3.42924E-15  1.22460E+02  1.55741E-06  8.0E-05
  7.250E-01  4.00281E-05  3.38433E-15  1.20857E+02  1.62623E-06  1.0E-04
  7.500E-01  4.28362E-05  3.34103E-15  1.19310E+02  1.69681E-06  1.0E-04
  7.750E-01  4.57395E-05  3.29906E-15  1.17811E+02  1.76829E-06  8.0E-05
  8.000E-01  4.87380E-05  3.25816E-15  1.16351E+02  1.83977E-06  4.4E-05
  8.250E-01  5.18317E-05  3.21811E-15  1.14921E+02  1.91053E-06  5.4E-07
  8.500E-01  5.50205E-05  3.17877E-15  1.13516E+02  1.98016E-06  4.3E-05
  8.750E-01  5.83045E-05  3.14006E-15  1.12134E+02  2.04858E-06  7.6E-05
  9.000E-01  6.16838E-05  3.10197E-15  1.10773E+02  2.11612E-06  9.4E-05
  9.250E-01  6.51582E-05  3.06454E-15  1.09437E+02  2.18338E-06  9.3E-05
  9.500E-01  6.87277E-05  3.02783E-15  1.08126E+02  2.25113E-06  7.4E-05
  9.750E-01  7.23925E-05  2.99190E-15  1.06843E+02  2.32014E-06  4.0E-05
  1.000E+00  7.61524E-05  2.95679E-15  1.05589E+02  2.39104E-06  1.9E-06
  1.100E+00  9.21439E-05  2.82403E-15  1.00848E+02  2.69608E-06  8.8E-05
  1.200E+00  1.09658E-04  2.69933E-15  9.63947E+01  3.01394E-06  4.3E-05
  1.300E+00  1.28695E-04  2.57896E-15  9.20965E+01  3.32689E-06  6.5E-05
  1.400E+00  1.49255E-04  2.46406E-15  8.79930E+01  3.66080E-06  7.1E-05
  1.500E+00  1.71338E-04  2.35426E-15  8.40723E+01  4.02107E-06  3.0E-05
  1.600E+00  1.94942E-04  2.24729E-15  8.02521E+01  4.38365E-06  8.4E-05
  1.700E+00  2.20070E-04  2.14328E-15  7.65380E+01  4.75776E-06  1.0E-05
  1.800E+00  2.46720E-04  2.04316E-15  7.29624E+01  5.16337E-06  7.8E-05
  1.900E+00  2.74892E-04  1.94596E-15  6.94915E+01  5.58403E-06  4.6E-05
  2.000E+00  3.04586E-04  1.85125E-15  6.61095E+01  6.01147E-06  5.5E-05
  2.100E+00  3.35803E-04  1.75991E-15  6.28476E+01  6.46777E-06  7.2E-05
  2.200E+00  3.68542E-04  1.67189E-15  5.97044E+01  6.95175E-06  2.1E-05
  2.300E+00  4.02802E-04  1.58662E-15  5.66592E+01  7.44478E-06  8.2E-05
  2.400E+00  4.38585E-04  1.50449E-15  5.37263E+01  7.95971E-06  1.8E-05
  2.500E+00  4.75889E-04  1.42588E-15  5.09191E+01  8.51011E-06  7.4E-05
  2.600E+00  5.14715E-04  1.35036E-15  4.82223E+01  9.07815E-06  5.3E-05
  2.700E+00  5.55063E-04  1.27789E-15  4.56342E+01  9.66153E-06  4.9E-05
  2.800E+00  5.96931E-04  1.20882E-15  4.31679E+01  1.02811E-05  7.7E-05
  2.900E+00  6.40321E-04  1.14301E-15  4.08176E+01  1.09298E-05  1.3E-05
  3.000E+00  6.85233E-04  1.08015E-15  3.85729E+01  1.15921E-05  8.5E-05
  3.100E+00  7.31665E-04  1.02043E-15  3.64402E+01  1.22847E-05  2.7E-05
  3.200E+00  7.79618E-04  9.63864E-16  3.44202E+01  1.30163E-05  7.3E-05
  3.300E+00  8.29092E-04  9.10137E-16  3.25016E+01  1.37662E-05  6.2E-05
  3.400E+00  8.80086E-04  8.59197E-16  3.06825E+01  1.45381E-05  4.5E-05
  3.500E+00  9.32601E-04  8.11124E-16  2.89658E+01  1.53523E-05  8.5E-05
  3.600E+00  9.86636E-04  7.65697E-16  2.73436E+01  1.61954E-05  5.7E-06
  3.700E+00  1.04219E-03  7.22720E-16  2.58088E+01  1.70543E-05  8.9E-05
  3.800E+00  1.09927E-03  6.82230E-16  2.43629E+01  1.79511E-05  3.7E-05
  3.900E+00  1.15786E-03  6.44121E-16  2.30020E+01  1.88881E-05  7.3E-05
  4.000E+00  1.21797E-03  6.08160E-16  2.17178E+01  1.98417E-05  7.2E-05
  4.100E+00  1.27961E-03  5.74294E-16  2.05084E+01  2.08227E-05  4.0E-05
  4.200E+00  1.34276E-03  5.42496E-16  1.93729E+01  2.18504E-05  9.3E-05
  4.300E+00  1.40743E-03  5.12573E-16  1.83043E+01  2.29030E-05  3.1E-06
  4.400E+00  1.47362E-03  4.84399E-16  1.72982E+01  2.39722E-05  9.4E-05
  4.500E+00  1.54133E-03  4.57963E-16  1.63542E+01  2.50851E-05  4.8E-05
  4.600E+00  1.61056E-03  4.33148E-16  1.54680E+01  2.62354E-05  7.3E-05
  4.700E+00  1.68131E-03  4.09799E-16  1.46342E+01  2.73973E-05  8.3E-05
  4.800E+00  1.75357E-03  3.87878E-16  1.38514E+01  2.85907E-05  3.5E-05
  4.900E+00  1.82735E-03  3.67332E-16  1.31176E+01  2.98308E-05  1.0E-04
  5.000E+00  1.90265E-03  3.48022E-16  1.24281E+01  3.10872E-05  1.3E-05
  5.100E+00  1.97947E-03  3.29876E-16  1.17801E+01  3.23590E-05  9.7E-05
  5.200E+00  2.05780E-03  3.12869E-16  1.11728E+01  3.36770E-05  6.0E-05
  5.300E+00  2.13765E-03  2.96908E-16  1.06028E+01  3.50236E-05  7.1E-05
  5.400E+00  2.21902E-03  2.81896E-16  1.00667E+01  3.63739E-05  9.4E-05
  5.500E+00  2.30190E-03  2.67811E-16  9.56371E+00  3.77579E-05  2.7E-05
  5.600E+00  2.38630E-03  2.54601E-16  9.09198E+00  3.91833E-05  1.1E-04
  5.700E+00  2.47222E-03  2.42175E-16  8.64824E+00  4.06120E-05  2.4E-05
  5.800E+00  2.55965E-03  2.30493E-16  8.23106E+00  4.20543E-05  9.9E-05
  5.900E+00  2.64859E-03  2.19532E-16  7.83965E+00  4.35424E-05  7.1E-05
  6.000E+00  2.73905E-03  2.09224E-16  7.47151E+00  4.50456E-05  6.7E-05
  6.100E+00  2.83103E-03  1.99513E-16  7.12472E+00  4.65445E-05  1.0E-04
  6.200E+00  2.92452E-03  1.90385E-16  6.79878E+00  4.80796E-05  1.8E-05
  6.300E+00  3.01952E-03  1.81800E-16  6.49221E+00  4.96472E-05  1.1E-04
  6.400E+00  3.11604E-03  1.73701E-16  6.20298E+00  5.12047E-05  3.5E-05
  6.500E+00  3.21407E-03  1.66068E-16  5.93041E+00  5.27773E-05  9.8E-05
  6.600E+00  3.31362E-03  1.58883E-16  5.67382E+00  5.43941E-05  8.2E-05
  6.700E+00  3.41468E-03  1.52099E-16  5.43155E+00  5.60114E-05  6.0E-05
  6.800E+00  3.51725E-03  1.45687E-16  5.20256E+00  5.76206E-05  1.1E-04
  6.900E+00  3.62133E-03  1.39639E-16  4.98659E+00  5.92710E-05  8.6E-06
  7.000E+00  3.72692E-03  1.33925E-16  4.78255E+00  6.09433E-05  1.2E-04
  7.100E+00  3.83403E-03  1.28512E-16  4.58926E+00  6.25953E-05  4.6E-05
  7.200E+00  3.94265E-03  1.23393E-16  4.40644E+00  6.42688E-05  9.5E-05
  7.300E+00  4.05278E-03  1.18552E-16  4.23358E+00  6.59839E-05  9.0E-05
  7.400E+00  4.16442E-03  1.13960E-16  4.06960E+00  6.76853E-05  5.2E-05
  7.500E+00  4.27757E-03  1.09604E-16  3.91402E+00  6.93807E-05  1.2E-04
  7.600E+00  4.39223E-03  1.05478E-16  3.76668E+00  7.11226E-05  1.6E-06
  7.700E+00  4.50840E-03  1.01561E-16  3.62682E+00  7.28736E-05  1.1E-04
  7.800E+00  4.62608E-03  9.78360E-17  3.49379E+00  7.45982E-05  5.5E-05
  7.900E+00  4.74527E-03  9.42992E-17  3.36749E+00  7.63534E-05  8.8E-05
  8.000E+00  4.86597E-03  9.09402E-17  3.24753E+00  7.81443E-05  9.7E-05
  8.100E+00  4.98817E-03  8.77399E-17  3.13325E+00  7.99080E-05  4.3E-05
  8.200E+00  5.11188E-03  8.46925E-17  3.02442E+00  8.16722E-05  1.2E-04
  8.300E+00  5.23711E-03  8.17951E-17  2.92095E+00  8.34862E-05  1.1E-05
  8.400E+00  5.36383E-03  7.90324E-17  2.82230E+00  8.52940E-05  1.1E-04
  8.500E+00  5.49207E-03  7.63945E-17  2.72810E+00  8.70739E-05  6.3E-05
  8.600E+00  5.62181E-03  7.38810E-17  2.63834E+00  8.88946E-05  8.0E-05
  8.700E+00  5.75306E-03  7.14834E-17  2.55272E+00  9.07412E-05  1.0E-04
  8.800E+00  5.88581E-03  6.91894E-17  2.47080E+00  9.25502E-05  3.3E-05
  8.900E+00  6.02007E-03  6.69974E-17  2.39252E+00  9.43705E-05  1.1E-04
  9.000E+00  6.15583E-03  6.49045E-17  2.31778E+00  9.62412E-05  2.0E-05
  9.100E+00  6.29310E-03  6.28999E-17  2.24620E+00  9.80907E-05  1.0E-04
  9.200E+00  6.43187E-03  6.09786E-17  2.17759E+00  9.99170E-05  6.8E-05
  9.300E+00  6.57214E-03  5.91409E-17  2.11196E+00  1.01795E-04  7.1E-05
  9.400E+00  6.71392E-03  5.73796E-17  2.04906E+00  1.03687E-04  1.0E-04
  9.500E+00  6.85720E-03  5.56876E-17  1.98864E+00  1.05536E-04  2.4E-05
  9.600E+00  7.00198E-03  5.40649E-17  1.93069E+00  1.07411E-04  1.1E-04
  9.700E+00  7.14827E-03  5.25086E-17  1.87512E+00  1.09334E-04  2.7E-05
  9.800E+00  7.29605E-03  5.10115E-17  1.82165E+00  1.11223E-04  9.5E-05
  9.900E+00  7.44534E-03  4.95715E-17  1.77023E+00  1.13100E-04  7.0E-05
  1.000E+01  7.59612E-03  4.81887E-17  1.72085E+00  1.15037E-04  6.1E-05
  1.025E+01  7.97965E-03  4.49512E-17  1.60523E+00  1.19827E-04  7.1E-05
  1.050E+01  8.37255E-03  4.20034E-17  1.49997E+00  1.24712E-04  8.5E-05
  1.075E+01  8.77480E-03  3.93107E-17  1.40381E+00  1.29639E-04  3.3E-05
  1.100E+01  9.18641E-03  3.68440E-17  1.31572E+00  1.34556E-04  9.3E-05
  1.125E+01  9.60736E-03  3.45810E-17  1.23491E+00  1.39526E-04  5.6E-06
  1.150E+01  1.00376E-02  3.25012E-17  1.16064E+00  1.44580E-04  8.4E-05
  1.175E+01  1.04773E-02  3.05842E-17  1.09218E+00  1.49633E-04  3.9E-05
  1.200E+01  1.09262E-02  2.88137E-17  1.02896E+00  1.54664E-04  6.1E-05
  1.225E+01  1.13844E-02  2.71764E-17  9.70486E-01  1.59761E-04  6.0E-05
  1.250E+01  1.18520E-02  2.56589E-17  9.16297E-01  1.64912E-04  3.1E-05
  1.275E+01  1.23288E-02  2.42489E-17  8.65943E-01  1.70023E-04  6.7E-05
  1.300E+01  1.28150E-02  2.29367E-17  8.19084E-01  1.75121E-04  9.5E-07
  1.325E+01  1.33104E-02  2.17144E-17  7.75434E-01  1.80291E-04  5.8E-05
  1.350E+01  1.38150E-02  2.05736E-17  7.34698E-01  1.85469E-04  2.7E-05
  1.375E+01  1.43290E-02  1.95074E-17  6.96621E-01  1.90570E-04  3.9E-05
