 #
 # Subroutine ELSEPA. Elastic scattering of electrons and positrons
 #                    by neutral atoms and positive ions
 #
 # Projectile: electron
 # Kinetic energy = 2.00000E+03 eV = 7.34987E+01 a.u.
 #
 # Element: Si,  Z =  14,  atomic weight = 2.80855E+01 g/mol
 #
 # Nuclear model: Fermi distribution
 #                Average radius = 3.25245E-13 cm
 #                Skin thickness = 5.46000E-14 cm
 #
 # Number of electrons = 14
 #
 # Electron density: Read from file z_014.den   
 #                   Number of data points =  761
 #                   Volume integral = 1.40000E+01
 #
 # Furness-McCarthy exchange potential
 #
 # LDA absorption potential (only electron-hole excitations):
 #                           Delta = 7.80000E-01 eV
 #                            Aabs = 2.00000E+00
 #
 # Correlation-polarization potential (LDA):
 #                           Alpha = 5.38000E-24 cm**3
 #                            Bpol = 1.10397E+01
 #
 # Total elastic cross section = 8.22168E-17 cm**2 = 2.93602E+00 a0**2
 # 1st transport cross section = 4.02524E-18 cm**2 = 1.43744E-01 a0**2
 # 2nd transport cross section = 7.85337E-18 cm**2 = 2.80449E-01 a0**2
 #
 #    Absorption cross section = 5.07419E-17 cm**2 = 1.81203E+00 a0**2
 #   Grand total cross section = 1.32964E-16 cm**2 = 4.74823E+00 a0**2
 #
 #
 # Differential cross section:                       MU=(1-COS(THETA))/2
 #
 #  THETA        MU          DCS          DCS        Sherman      error
 #  (deg)                 (cm**2/sr)   (a0**2/sr)    function
 #----------------------------------------------------------------------
  0.000E+00  0.00000E+00  5.82855E-15  2.08141E+02  0.00000E+00  4.9E-05
  1.000E-04  7.61557E-13  5.82854E-15  2.08141E+02  1.78220E-10  4.9E-05
  1.250E-04  1.18994E-12  5.82854E-15  2.08141E+02  2.22775E-10  4.9E-05
  1.500E-04  1.71346E-12  5.82854E-15  2.08141E+02  2.67330E-10  4.9E-05
  1.750E-04  2.33225E-12  5.82854E-15  2.08141E+02  3.11886E-10  4.9E-05
  2.000E-04  3.04617E-12  5.82854E-15  2.08141E+02  3.56441E-10  4.9E-05
  2.250E-04  3.85530E-12  5.82854E-15  2.08141E+02  4.00996E-10  4.9E-05
  2.500E-04  4.75964E-12  5.82854E-15  2.08141E+02  4.45551E-10  4.9E-05
  2.750E-04  5.75917E-12  5.82854E-15  2.08141E+02  4.90106E-10  4.9E-05
  3.000E-04  6.85391E-12  5.82854E-15  2.08141E+02  5.34661E-10  4.9E-05
  3.250E-04  8.04379E-12  5.82854E-15  2.08141E+02  5.79216E-10  4.9E-05
  3.500E-04  9.32893E-12  5.82854E-15  2.08141E+02  6.23771E-10  4.9E-05
  3.750E-04  1.07092E-11  5.82854E-15  2.08141E+02  6.68326E-10  4.9E-05
  4.000E-04  1.21847E-11  5.82854E-15  2.08141E+02  7.12881E-10  4.9E-05
  4.250E-04  1.37554E-11  5.82854E-15  2.08141E+02  7.57436E-10  4.9E-05
  4.500E-04  1.54213E-11  5.82854E-15  2.08141E+02  8.01991E-10  4.9E-05
  4.750E-04  1.71823E-11  5.82854E-15  2.08141E+02  8.46546E-10  4.9E-05
  5.000E-04  1.90386E-11  5.82854E-15  2.08141E+02  8.91101E-10  4.9E-05
  5.250E-04  2.09900E-11  5.82854E-15  2.08141E+02  9.35656E-10  4.9E-05
  5.500E-04  2.30367E-11  5.82854E-15  2.08141E+02  9.80211E-10  4.9E-05
  5.750E-04  2.51785E-11  5.82854E-15  2.08141E+02  1.02477E-09  4.9E-05
  6.000E-04  2.74156E-11  5.82854E-15  2.08141E+02  1.06932E-09  4.9E-05
  6.250E-04  2.97478E-11  5.82854E-15  2.08141E+02  1.11388E-09  4.9E-05
  6.500E-04  3.21752E-11  5.82854E-15  2.08141E+02  1.15843E-09  4.9E-05
  6.750E-04  3.46979E-11  5.82854E-15  2.08141E+02  1.20299E-09  4.9E-05
  7.000E-04  3.73157E-11  5.82854E-15  2.08141E+02  1.24754E-09  4.9E-05
  7.250E-04  4.00286E-11  5.82854E-15  2.08141E+02  1.29210E-09  4.9E-05
  7.500E-04  4.28368E-11  5.82854E-15  2.08141E+02  1.33665E-09  4.9E-05
  7.750E-04  4.57402E-11  5.82854E-15  2.08141E+02  1.38121E-09  4.9E-05
  8.000E-04  4.87388E-11  5.82854E-15  2.08141E+02  1.42576E-09  4.9E-05
  8.250E-04  5.18325E-11  5.82854E-15  2.08141E+02  1.47032E-09  4.9E-05
  8.500E-04  5.50215E-11  5.82854E-15  2.08141E+02  1.51487E-09  4.9E-05
  8.750E-04  5.83057E-11  5.82854E-15  2.08141E+02  1.55943E-09  4.9E-05
  9.000E-04  6.16850E-11  5.82854E-15  2.08141E+02  1.60398E-09  4.9E-05
  9.250E-04  6.51595E-11  5.82854E-15  2.08141E+02  1.64854E-09  4.9E-05
  9.500E-04  6.87293E-11  5.82854E-15  2.08141E+02  1.69309E-09  4.9E-05
  9.750E-04  7.23943E-11  5.82854E-15  2.08141E+02  1.73765E-09  4.9E-05
  1.000E-03  7.61544E-11  5.82854E-15  2.08141E+02  1.78220E-09  4.9E-05
  1.250E-03  1.18991E-10  5.82853E-15  2.08141E+02  2.22775E-09  4.9E-05
  1.500E-03  1.71347E-10  5.82852E-15  2.08140E+02  2.67330E-09  4.9E-05
  1.750E-03  2.33223E-10  5.82851E-15  2.08140E+02  3.11884E-09  4.9E-05
  2.000E-03  3.04617E-10  5.82851E-15  2.08140E+02  3.56438E-09  4.9E-05
  2.250E-03  3.85531E-10  5.82849E-15  2.08139E+02  4.00992E-09  4.9E-05
  2.500E-03  4.75965E-10  5.82848E-15  2.08139E+02  4.45546E-09  4.9E-05
  2.750E-03  5.75917E-10  5.82847E-15  2.08138E+02  4.90100E-09  4.9E-05
  3.000E-03  6.85389E-10  5.82846E-15  2.08138E+02  5.34653E-09  4.9E-05
  3.250E-03  8.04380E-10  5.82844E-15  2.08137E+02  5.79206E-09  4.9E-05
  3.500E-03  9.32891E-10  5.82842E-15  2.08137E+02  6.23759E-09  4.9E-05
  3.750E-03  1.07092E-09  5.82841E-15  2.08136E+02  6.68311E-09  4.9E-05
  4.000E-03  1.21847E-09  5.82839E-15  2.08135E+02  7.12863E-09  4.9E-05
  4.250E-03  1.37554E-09  5.82837E-15  2.08135E+02  7.57415E-09  4.9E-05
  4.500E-03  1.54213E-09  5.82834E-15  2.08134E+02  8.01966E-09  4.9E-05
  4.750E-03  1.71823E-09  5.82832E-15  2.08133E+02  8.46516E-09  4.9E-05
  5.000E-03  1.90386E-09  5.82830E-15  2.08132E+02  8.91066E-09  4.9E-05
  5.250E-03  2.09900E-09  5.82827E-15  2.08131E+02  9.35616E-09  4.9E-05
  5.500E-03  2.30367E-09  5.82825E-15  2.08130E+02  9.80165E-09  4.9E-05
  5.750E-03  2.51785E-09  5.82822E-15  2.08129E+02  1.02471E-08  4.9E-05
  6.000E-03  2.74156E-09  5.82819E-15  2.08128E+02  1.06926E-08  4.9E-05
  6.250E-03  2.97478E-09  5.82816E-15  2.08127E+02  1.11381E-08  4.9E-05
  6.500E-03  3.21752E-09  5.82813E-15  2.08126E+02  1.15835E-08  4.9E-05
  6.750E-03  3.46978E-09  5.82809E-15  2.08125E+02  1.20290E-08  4.9E-05
  7.000E-03  3.73156E-09  5.82806E-15  2.08124E+02  1.24745E-08  4.9E-05
  7.250E-03  4.00286E-09  5.82802E-15  2.08123E+02  1.29199E-08  4.9E-05
  7.500E-03  4.28368E-09  5.82799E-15  2.08121E+02  1.33653E-08  4.9E-05
  7.750E-03  4.57402E-09  5.82795E-15  2.08120E+02  1.38108E-08  4.9E-05
  8.000E-03  4.87388E-09  5.82791E-15  2.08118E+02  1.42562E-08  4.9E-05
  8.250E-03  5.18326E-09  5.82787E-15  2.08117E+02  1.47016E-08  4.9E-05
  8.500E-03  5.50215E-09  5.82783E-15  2.08116E+02  1.51470E-08  4.9E-05
  8.750E-03  5.83057E-09  5.82779E-15  2.08114E+02  1.55924E-08  4.9E-05
  9.000E-03  6.16850E-09  5.82774E-15  2.08112E+02  1.60378E-08  4.9E-05
  9.250E-03  6.51596E-09  5.82770E-15  2.08111E+02  1.64832E-08  4.9E-05
  9.500E-03  6.87293E-09  5.82765E-15  2.08109E+02  1.69285E-08  4.9E-05
  9.750E-03  7.23942E-09  5.82760E-15  2.08108E+02  1.73739E-08  4.9E-05
  1.000E-02  7.61544E-09  5.82755E-15  2.08106E+02  1.78192E-08  4.9E-05
  1.250E-02  1.18991E-08  5.82700E-15  2.08086E+02  2.22721E-08  4.9E-05
  1.500E-02  1.71347E-08  5.82632E-15  2.08062E+02  2.67236E-08  4.9E-05
  1.750E-02  2.33223E-08  5.82551E-15  2.08033E+02  3.11735E-08  4.9E-05
  2.000E-02  3.04617E-08  5.82459E-15  2.08000E+02  3.56217E-08  4.9E-05
  2.250E-02  3.85531E-08  5.82354E-15  2.07962E+02  4.00677E-08  4.8E-05
  2.500E-02  4.75965E-08  5.82237E-15  2.07920E+02  4.45114E-08  4.8E-05
  2.750E-02  5.75917E-08  5.82107E-15  2.07874E+02  4.89524E-08  4.8E-05
  3.000E-02  6.85389E-08  5.81966E-15  2.07824E+02  5.33907E-08  4.8E-05
  3.250E-02  8.04380E-08  5.81812E-15  2.07769E+02  5.78258E-08  4.8E-05
  3.500E-02  9.32891E-08  5.81646E-15  2.07709E+02  6.22575E-08  4.7E-05
  3.750E-02  1.07092E-07  5.81468E-15  2.07646E+02  6.66857E-08  4.7E-05
  4.000E-02  1.21847E-07  5.81278E-15  2.07578E+02  7.11099E-08  4.7E-05
  4.250E-02  1.37554E-07  5.81076E-15  2.07506E+02  7.55301E-08  4.6E-05
  4.500E-02  1.54213E-07  5.80862E-15  2.07430E+02  7.99459E-08  4.6E-05
  4.750E-02  1.71823E-07  5.80636E-15  2.07349E+02  8.43572E-08  4.5E-05
  5.000E-02  1.90386E-07  5.80398E-15  2.07264E+02  8.87636E-08  4.5E-05
  5.250E-02  2.09900E-07  5.80149E-15  2.07175E+02  9.31650E-08  4.5E-05
  5.500E-02  2.30367E-07  5.79888E-15  2.07082E+02  9.75611E-08  4.4E-05
  5.750E-02  2.51785E-07  5.79615E-15  2.06984E+02  1.01952E-07  4.4E-05
  6.000E-02  2.74156E-07  5.79331E-15  2.06883E+02  1.06337E-07  4.3E-05
  6.250E-02  2.97478E-07  5.79035E-15  2.06777E+02  1.10716E-07  4.3E-05
  6.500E-02  3.21752E-07  5.78728E-15  2.06667E+02  1.15088E-07  4.2E-05
  6.750E-02  3.46978E-07  5.78409E-15  2.06554E+02  1.19455E-07  4.2E-05
  7.000E-02  3.73156E-07  5.78079E-15  2.06436E+02  1.23814E-07  4.1E-05
  7.250E-02  4.00286E-07  5.77738E-15  2.06314E+02  1.28167E-07  4.0E-05
  7.500E-02  4.28368E-07  5.77386E-15  2.06188E+02  1.32513E-07  4.0E-05
  7.750E-02  4.57402E-07  5.77023E-15  2.06059E+02  1.36852E-07  3.9E-05
  8.000E-02  4.87388E-07  5.76649E-15  2.05925E+02  1.41184E-07  3.9E-05
  8.250E-02  5.18325E-07  5.76264E-15  2.05788E+02  1.45508E-07  3.8E-05
  8.500E-02  5.50215E-07  5.75868E-15  2.05646E+02  1.49824E-07  3.7E-05
  8.750E-02  5.83057E-07  5.75462E-15  2.05501E+02  1.54132E-07  3.7E-05
  9.000E-02  6.16850E-07  5.75045E-15  2.05352E+02  1.58432E-07  3.6E-05
  9.250E-02  6.51596E-07  5.74618E-15  2.05200E+02  1.62724E-07  3.5E-05
  9.500E-02  6.87293E-07  5.74180E-15  2.05043E+02  1.67007E-07  3.4E-05
  9.750E-02  7.23942E-07  5.73732E-15  2.04884E+02  1.71282E-07  3.4E-05
  1.000E-01  7.61543E-07  5.73274E-15  2.04720E+02  1.75549E-07  3.3E-05
  1.250E-01  1.18991E-06  5.68162E-15  2.02894E+02  2.17702E-07  2.5E-05
  1.500E-01  1.71347E-06  5.62167E-15  2.00754E+02  2.58866E-07  1.6E-05
  1.750E-01  2.33223E-06  5.55424E-15  1.98346E+02  2.99002E-07  7.5E-06
  2.000E-01  3.04617E-06  5.48075E-15  1.95721E+02  3.38149E-07  8.4E-07
  2.250E-01  3.85531E-06  5.40263E-15  1.92932E+02  3.76425E-07  8.2E-06
  2.500E-01  4.75964E-06  5.32131E-15  1.90028E+02  4.14028E-07  1.4E-05
  2.750E-01  5.75916E-06  5.23813E-15  1.87057E+02  4.51229E-07  1.8E-05
  3.000E-01  6.85388E-06  5.15430E-15  1.84063E+02  4.88354E-07  2.1E-05
  3.250E-01  8.04378E-06  5.07089E-15  1.81085E+02  5.25773E-07  2.1E-05
  3.500E-01  9.32888E-06  4.98881E-15  1.78154E+02  5.63866E-07  2.0E-05
  3.750E-01  1.07092E-05  4.90875E-15  1.75295E+02  6.03007E-07  1.6E-05
  4.000E-01  1.21846E-05  4.83125E-15  1.72527E+02  6.43529E-07  1.2E-05
  4.250E-01  1.37553E-05  4.75665E-15  1.69863E+02  6.85705E-07  6.4E-06
  4.500E-01  1.54212E-05  4.68514E-15  1.67309E+02  7.29723E-07  7.0E-07
  4.750E-01  1.71822E-05  4.61675E-15  1.64867E+02  7.75674E-07  4.9E-06
  5.000E-01  1.90385E-05  4.55141E-15  1.62534E+02  8.23547E-07  9.8E-06
  5.250E-01  2.09899E-05  4.48893E-15  1.60303E+02  8.73229E-07  1.4E-05
  5.500E-01  2.30365E-05  4.42908E-15  1.58165E+02  9.24519E-07  1.6E-05
  5.750E-01  2.51783E-05  4.37156E-15  1.56111E+02  9.77144E-07  1.7E-05
  6.000E-01  2.74153E-05  4.31608E-15  1.54130E+02  1.03078E-06  1.6E-05
  6.250E-01  2.97475E-05  4.26234E-15  1.52211E+02  1.08510E-06  1.4E-05
  6.500E-01  3.21749E-05  4.21006E-15  1.50344E+02  1.13975E-06  1.1E-05
  6.750E-01  3.46974E-05  4.15901E-15  1.48521E+02  1.19443E-06  6.8E-06
  7.000E-01  3.73152E-05  4.10899E-15  1.46735E+02  1.24890E-06  2.0E-06
  7.250E-01  4.00281E-05  4.05985E-15  1.44980E+02  1.30299E-06  2.8E-06
  7.500E-01  4.28362E-05  4.01152E-15  1.43254E+02  1.35658E-06  7.3E-06
  7.750E-01  4.57395E-05  3.96393E-15  1.41555E+02  1.40969E-06  1.1E-05
  8.000E-01  4.87380E-05  3.91708E-15  1.39882E+02  1.46238E-06  1.4E-05
  8.250E-01  5.18317E-05  3.87100E-15  1.38236E+02  1.51481E-06  1.5E-05
  8.500E-01  5.50205E-05  3.82572E-15  1.36619E+02  1.56718E-06  1.5E-05
  8.750E-01  5.83045E-05  3.78132E-15  1.35033E+02  1.61976E-06  1.4E-05
  9.000E-01  6.16838E-05  3.73783E-15  1.33480E+02  1.67280E-06  1.1E-05
  9.250E-01  6.51582E-05  3.69532E-15  1.31962E+02  1.72656E-06  7.3E-06
  9.500E-01  6.87277E-05  3.65383E-15  1.30481E+02  1.78128E-06  3.1E-06
  9.750E-01  7.23925E-05  3.61337E-15  1.29036E+02  1.83715E-06  1.3E-06
  1.000E+00  7.61524E-05  3.57394E-15  1.27628E+02  1.89427E-06  5.5E-06
  1.100E+00  9.21439E-05  3.42586E-15  1.22340E+02  2.13522E-06  1.4E-05
  1.200E+00  1.09658E-04  3.28996E-15  1.17487E+02  2.38890E-06  4.2E-06
  1.300E+00  1.28695E-04  3.16193E-15  1.12915E+02  2.64320E-06  1.1E-05
  1.400E+00  1.49255E-04  3.04007E-15  1.08563E+02  2.89603E-06  1.1E-05
  1.500E+00  1.71338E-04  2.92499E-15  1.04453E+02  3.15710E-06  2.7E-06
  1.600E+00  1.94942E-04  2.81709E-15  1.00600E+02  3.43508E-06  1.3E-05
  1.700E+00  2.20070E-04  2.71520E-15  9.69614E+01  3.72714E-06  6.1E-06
  1.800E+00  2.46720E-04  2.61747E-15  9.34714E+01  4.02368E-06  8.3E-06
  1.900E+00  2.74892E-04  2.52298E-15  9.00971E+01  4.32126E-06  1.2E-05
  2.000E+00  3.04586E-04  2.43200E-15  8.68482E+01  4.62702E-06  2.0E-07
  2.100E+00  3.35803E-04  2.34492E-15  8.37387E+01  4.94948E-06  1.2E-05
  2.200E+00  3.68542E-04  2.26139E-15  8.07558E+01  5.28809E-06  7.7E-06
  2.300E+00  4.02802E-04  2.18055E-15  7.78688E+01  5.63500E-06  6.2E-06
  2.400E+00  4.38585E-04  2.10188E-15  7.50596E+01  5.98598E-06  1.2E-05
  2.500E+00  4.75889E-04  2.02555E-15  7.23337E+01  6.34632E-06  2.1E-06
  2.600E+00  5.14715E-04  1.95188E-15  6.97029E+01  6.72426E-06  1.0E-05
  2.700E+00  5.55063E-04  1.88079E-15  6.71643E+01  7.12094E-06  9.3E-06
  2.800E+00  5.96931E-04  1.81185E-15  6.47023E+01  7.52983E-06  4.0E-06
  2.900E+00  6.40321E-04  1.74474E-15  6.23058E+01  7.94610E-06  1.2E-05
  3.000E+00  6.85233E-04  1.67955E-15  5.99779E+01  8.37354E-06  4.3E-06
  3.100E+00  7.31665E-04  1.61653E-15  5.77274E+01  8.82016E-06  9.2E-06
  3.200E+00  7.79618E-04  1.55569E-15  5.55547E+01  9.28843E-06  1.1E-05
  3.300E+00  8.29092E-04  1.49678E-15  5.34510E+01  9.77290E-06  1.8E-06
  3.400E+00  8.80086E-04  1.43959E-15  5.14086E+01  1.02682E-05  1.2E-05
  3.500E+00  9.32601E-04  1.38414E-15  4.94285E+01  1.07768E-05  6.5E-06
  3.600E+00  9.86636E-04  1.33060E-15  4.75167E+01  1.13065E-05  7.7E-06
  3.700E+00  1.04219E-03  1.27901E-15  4.56744E+01  1.18610E-05  1.2E-05
  3.800E+00  1.09927E-03  1.22921E-15  4.38960E+01  1.24357E-05  5.1E-07
  3.900E+00  1.15786E-03  1.18103E-15  4.21754E+01  1.30247E-05  1.2E-05
  4.000E+00  1.21797E-03  1.13446E-15  4.05122E+01  1.36292E-05  8.6E-06
  4.100E+00  1.27961E-03  1.08958E-15  3.89096E+01  1.42570E-05  5.9E-06
  4.200E+00  1.34276E-03  1.04643E-15  3.73688E+01  1.49126E-05  1.3E-05
  4.300E+00  1.40743E-03  1.00491E-15  3.58859E+01  1.55925E-05  3.0E-06
  4.400E+00  1.47362E-03  9.64859E-16  3.44558E+01  1.62902E-05  1.1E-05
  4.500E+00  1.54133E-03  9.26252E-16  3.30771E+01  1.70058E-05  1.1E-05
  4.600E+00  1.61056E-03  8.89135E-16  3.17516E+01  1.77464E-05  3.7E-06
  4.700E+00  1.68131E-03  8.53524E-16  3.04799E+01  1.85179E-05  1.3E-05
  4.800E+00  1.75357E-03  8.19339E-16  2.92591E+01  1.93177E-05  5.6E-06
  4.900E+00  1.82735E-03  7.86462E-16  2.80851E+01  2.01388E-05  9.9E-06
  5.000E+00  1.90265E-03  7.54836E-16  2.69557E+01  2.09797E-05  1.3E-05
  5.100E+00  1.97947E-03  7.24481E-16  2.58717E+01  2.18474E-05  1.3E-06
  5.200E+00  2.05780E-03  6.95404E-16  2.48333E+01  2.27489E-05  1.4E-05
  5.300E+00  2.13765E-03  6.67544E-16  2.38384E+01  2.36825E-05  8.3E-06
  5.400E+00  2.21902E-03  6.40802E-16  2.28835E+01  2.46406E-05  8.3E-06
  5.500E+00  2.30190E-03  6.15122E-16  2.19664E+01  2.56204E-05  1.4E-05
  5.600E+00  2.38630E-03  5.90502E-16  2.10872E+01  2.66283E-05  1.5E-06
  5.700E+00  2.47222E-03  5.66945E-16  2.02460E+01  2.76724E-05  1.4E-05
  5.800E+00  2.55965E-03  5.44405E-16  1.94410E+01  2.87522E-05  1.1E-05
  5.900E+00  2.64859E-03  5.22801E-16  1.86696E+01  2.98596E-05  6.2E-06
  6.000E+00  2.73905E-03  5.02079E-16  1.79296E+01  3.09903E-05  1.6E-05
  6.100E+00  2.83103E-03  4.82227E-16  1.72206E+01  3.21497E-05  4.5E-06
  6.200E+00  2.92452E-03  4.63245E-16  1.65428E+01  3.33471E-05  1.3E-05
  6.300E+00  3.01952E-03  4.45098E-16  1.58947E+01  3.45834E-05  1.4E-05
  6.400E+00  3.11604E-03  4.27723E-16  1.52743E+01  3.58502E-05  3.6E-06
  6.500E+00  3.21407E-03  4.11071E-16  1.46796E+01  3.71412E-05  1.6E-05
  6.600E+00  3.31362E-03  3.95125E-16  1.41102E+01  3.84610E-05  7.7E-06
  6.700E+00  3.41468E-03  3.79883E-16  1.35659E+01  3.98197E-05  1.1E-05
  6.800E+00  3.51725E-03  3.65321E-16  1.30458E+01  4.12198E-05  1.6E-05
  6.900E+00  3.62133E-03  3.51388E-16  1.25483E+01  4.26527E-05  5.8E-07
  7.000E+00  3.72692E-03  3.38042E-16  1.20717E+01  4.41102E-05  1.7E-05
  7.100E+00  3.83403E-03  3.25266E-16  1.16155E+01  4.55954E-05  1.1E-05
  7.200E+00  3.94265E-03  3.13056E-16  1.11794E+01  4.71192E-05  9.3E-06
  7.300E+00  4.05278E-03  3.01393E-16  1.07629E+01  4.86860E-05  1.8E-05
  7.400E+00  4.16442E-03  2.90240E-16  1.03647E+01  5.02874E-05  2.9E-06
  7.500E+00  4.27757E-03  2.79560E-16  9.98328E+00  5.19129E-05  1.6E-05
  7.600E+00  4.39223E-03  2.69337E-16  9.61820E+00  5.35639E-05  1.4E-05
  7.700E+00  4.50840E-03  2.59565E-16  9.26923E+00  5.52520E-05  6.6E-06
  7.800E+00  4.62608E-03  2.50231E-16  8.93591E+00  5.69834E-05  1.9E-05
  7.900E+00  4.74527E-03  2.41307E-16  8.61724E+00  5.87503E-05  6.6E-06
  8.000E+00  4.86597E-03  2.32763E-16  8.31211E+00  6.05402E-05  1.5E-05
  8.100E+00  4.98817E-03  2.24581E-16  8.01994E+00  6.23524E-05  1.7E-05
  8.200E+00  5.11188E-03  2.16757E-16  7.74054E+00  6.41986E-05  3.3E-06
  8.300E+00  5.23711E-03  2.09282E-16  7.47358E+00  6.60874E-05  2.0E-05
  8.400E+00  5.36383E-03  2.02133E-16  7.21830E+00  6.80119E-05  1.1E-05
  8.500E+00  5.49207E-03  1.95286E-16  6.97379E+00  6.99580E-05  1.3E-05
  8.600E+00  5.62181E-03  1.88726E-16  6.73953E+00  7.19222E-05  2.0E-05
  8.700E+00  5.75306E-03  1.82447E-16  6.51531E+00  7.39165E-05  5.5E-07
  8.800E+00  5.88581E-03  1.76443E-16  6.30091E+00  7.59517E-05  2.0E-05
  8.900E+00  6.02007E-03  1.70698E-16  6.09575E+00  7.80225E-05  1.4E-05
  9.000E+00  6.15583E-03  1.65192E-16  5.89911E+00  8.01134E-05  1.0E-05
  9.100E+00  6.29310E-03  1.59910E-16  5.71051E+00  8.22182E-05  2.2E-05
  9.200E+00  6.43187E-03  1.54849E-16  5.52976E+00  8.43483E-05  4.8E-06
  9.300E+00  6.57214E-03  1.50003E-16  5.35672E+00  8.65172E-05  1.9E-05
  9.400E+00  6.71392E-03  1.45361E-16  5.19094E+00  8.87217E-05  1.8E-05
  9.500E+00  6.85720E-03  1.40907E-16  5.03187E+00  9.09453E-05  6.7E-06
  9.600E+00  7.00198E-03  1.36629E-16  4.87909E+00  9.31789E-05  2.3E-05
  9.700E+00  7.14827E-03  1.32522E-16  4.73244E+00  9.54329E-05  9.3E-06
  9.800E+00  7.29605E-03  1.28583E-16  4.59179E+00  9.77232E-05  1.7E-05
  9.900E+00  7.44534E-03  1.24805E-16  4.45686E+00  1.00050E-04  2.1E-05
  1.000E+01  7.59612E-03  1.21174E-16  4.32720E+00  1.02395E-04  2.5E-06
  1.025E+01  7.97965E-03  1.12691E-16  4.02429E+00  1.08310E-04  2.6E-07
  1.050E+01  8.37255E-03  1.05007E-16  3.74986E+00  1.14412E-04  2.1E-06
  1.075E+01  8.77480E-03  9.80108E-17  3.50003E+00  1.20594E-04  4.6E-06
  1.100E+01  9.18641E-03  9.16445E-17  3.27268E+00  1.26955E-04  7.2E-06
  1.125E+01  9.60736E-03  8.58251E-17  3.06487E+00  1.33386E-04  9.7E-06
  1.150E+01  1.00376E-02  8.05072E-17  2.87496E+00  1.39986E-04  1.2E-05
  1.175E+01  1.04773E-02  7.56283E-17  2.70074E+00  1.46649E-04  1.5E-05
  1.200E+01  1.09262E-02  7.11528E-17  2.54091E+00  1.53468E-04  1.7E-05
  1.225E+01  1.13844E-02  6.70331E-17  2.39379E+00  1.60345E-04  2.0E-05
  1.250E+01  1.18520E-02  6.32404E-17  2.25835E+00  1.67364E-04  2.2E-05
  1.275E+01  1.23288E-02  5.97381E-17  2.13329E+00  1.74438E-04  2.4E-05
  1.300E+01  1.28150E-02  5.65023E-17  2.01773E+00  1.81639E-04  2.6E-05
  1.325E+01  1.33104E-02  5.35044E-17  1.91068E+00  1.88898E-04  2.8E-05
  1.350E+01  1.38150E-02  5.07241E-17  1.81139E+00  1.96269E-04  3.0E-05
  1.375E+01  1.43290E-02  4.81395E-17  1.71909E+00  2.03705E-04  3.1E-05
