 #
 # Subroutine ELSEPA. Elastic scattering of electrons and positrons
 #                    by neutral atoms and positive ions
 #
 # Projectile: electron
 # Kinetic energy = 6.00000E+03 eV = 2.20496E+02 a.u.
 #
 # Element:  O,  Z =   8,  atomic weight = 1.59994E+01 g/mol
 #
 # Nuclear model: Fermi distribution
 #                Average radius = 2.69620E-13 cm
 #                Skin thickness = 5.46000E-14 cm
 #
 # Number of electrons =  8
 #
 # Electron density: Read from file z_008.den   
 #                   Number of data points =  681
 #                   Volume integral = 8.00000E+00
 #
 # Furness-McCarthy exchange potential
 #
 # LDA absorption potential (only electron-hole excitations):
 #                           Delta = 1.97000E+00 eV
 #                            Aabs = 2.00000E+00
 #
 # Correlation-polarization potential (LDA):
 #                           Alpha = 8.02000E-25 cm**3
 #                            Bpol = 1.92841E+01
 #
 # Total elastic cross section = 1.12545E-17 cm**2 = 4.01905E-01 a0**2
 # 1st transport cross section = 2.63827E-19 cm**2 = 9.42142E-03 a0**2
 # 2nd transport cross section = 6.24217E-19 cm**2 = 2.22912E-02 a0**2
 #
 #    Absorption cross section = 7.87489E-18 cm**2 = 2.81217E-01 a0**2
 #   Grand total cross section = 1.91301E-17 cm**2 = 6.83150E-01 a0**2
 #
 #
 # Differential cross section:                       MU=(1-COS(THETA))/2
 #
 #  THETA        MU          DCS          DCS        Sherman      error
 #  (deg)                 (cm**2/sr)   (a0**2/sr)    function
 #----------------------------------------------------------------------
  0.000E+00  0.00000E+00  5.82476E-16  2.08006E+01  0.00000E+00  2.0E-04
  1.000E-04  7.61557E-13  5.82476E-16  2.08006E+01  1.28714E-10  2.0E-04
  1.250E-04  1.18994E-12  5.82476E-16  2.08006E+01  1.60892E-10  2.0E-04
  1.500E-04  1.71346E-12  5.82476E-16  2.08006E+01  1.93071E-10  2.0E-04
  1.750E-04  2.33225E-12  5.82476E-16  2.08006E+01  2.25249E-10  2.0E-04
  2.000E-04  3.04617E-12  5.82476E-16  2.08006E+01  2.57428E-10  2.0E-04
  2.250E-04  3.85530E-12  5.82476E-16  2.08006E+01  2.89606E-10  2.0E-04
  2.500E-04  4.75964E-12  5.82476E-16  2.08006E+01  3.21784E-10  2.0E-04
  2.750E-04  5.75917E-12  5.82476E-16  2.08006E+01  3.53963E-10  2.0E-04
  3.000E-04  6.85391E-12  5.82476E-16  2.08006E+01  3.86141E-10  2.0E-04
  3.250E-04  8.04379E-12  5.82476E-16  2.08006E+01  4.18320E-10  2.0E-04
  3.500E-04  9.32893E-12  5.82476E-16  2.08006E+01  4.50498E-10  2.0E-04
  3.750E-04  1.07092E-11  5.82476E-16  2.08006E+01  4.82676E-10  2.0E-04
  4.000E-04  1.21847E-11  5.82476E-16  2.08006E+01  5.14855E-10  2.0E-04
  4.250E-04  1.37554E-11  5.82476E-16  2.08006E+01  5.47033E-10  2.0E-04
  4.500E-04  1.54213E-11  5.82476E-16  2.08006E+01  5.79211E-10  2.0E-04
  4.750E-04  1.71823E-11  5.82476E-16  2.08006E+01  6.11389E-10  2.0E-04
  5.000E-04  1.90386E-11  5.82476E-16  2.08006E+01  6.43568E-10  2.0E-04
  5.250E-04  2.09900E-11  5.82476E-16  2.08006E+01  6.75746E-10  2.0E-04
  5.500E-04  2.30367E-11  5.82476E-16  2.08006E+01  7.07924E-10  2.0E-04
  5.750E-04  2.51785E-11  5.82476E-16  2.08006E+01  7.40102E-10  2.0E-04
  6.000E-04  2.74156E-11  5.82476E-16  2.08006E+01  7.72280E-10  2.0E-04
  6.250E-04  2.97478E-11  5.82476E-16  2.08006E+01  8.04458E-10  2.0E-04
  6.500E-04  3.21752E-11  5.82476E-16  2.08006E+01  8.36636E-10  2.0E-04
  6.750E-04  3.46979E-11  5.82476E-16  2.08006E+01  8.68814E-10  2.0E-04
  7.000E-04  3.73157E-11  5.82475E-16  2.08006E+01  9.00992E-10  2.0E-04
  7.250E-04  4.00286E-11  5.82475E-16  2.08006E+01  9.33170E-10  2.0E-04
  7.500E-04  4.28368E-11  5.82475E-16  2.08006E+01  9.65348E-10  2.0E-04
  7.750E-04  4.57402E-11  5.82475E-16  2.08006E+01  9.97526E-10  2.0E-04
  8.000E-04  4.87388E-11  5.82475E-16  2.08006E+01  1.02970E-09  2.0E-04
  8.250E-04  5.18325E-11  5.82475E-16  2.08006E+01  1.06188E-09  2.0E-04
  8.500E-04  5.50215E-11  5.82475E-16  2.08006E+01  1.09406E-09  2.0E-04
  8.750E-04  5.83057E-11  5.82475E-16  2.08006E+01  1.12624E-09  2.0E-04
  9.000E-04  6.16850E-11  5.82475E-16  2.08006E+01  1.15841E-09  2.0E-04
  9.250E-04  6.51595E-11  5.82475E-16  2.08006E+01  1.19059E-09  2.0E-04
  9.500E-04  6.87293E-11  5.82475E-16  2.08006E+01  1.22277E-09  2.0E-04
  9.750E-04  7.23943E-11  5.82475E-16  2.08006E+01  1.25495E-09  2.0E-04
  1.000E-03  7.61544E-11  5.82475E-16  2.08006E+01  1.28712E-09  2.0E-04
  1.250E-03  1.18991E-10  5.82474E-16  2.08005E+01  1.60890E-09  2.0E-04
  1.500E-03  1.71347E-10  5.82473E-16  2.08005E+01  1.93066E-09  2.0E-04
  1.750E-03  2.33223E-10  5.82472E-16  2.08004E+01  2.25242E-09  2.0E-04
  2.000E-03  3.04617E-10  5.82470E-16  2.08004E+01  2.57416E-09  2.0E-04
  2.250E-03  3.85531E-10  5.82469E-16  2.08003E+01  2.89590E-09  2.0E-04
  2.500E-03  4.75965E-10  5.82467E-16  2.08003E+01  3.21762E-09  2.0E-04
  2.750E-03  5.75917E-10  5.82465E-16  2.08002E+01  3.53933E-09  2.0E-04
  3.000E-03  6.85389E-10  5.82463E-16  2.08001E+01  3.86103E-09  2.0E-04
  3.250E-03  8.04380E-10  5.82461E-16  2.08000E+01  4.18270E-09  2.0E-04
  3.500E-03  9.32891E-10  5.82458E-16  2.08000E+01  4.50437E-09  2.0E-04
  3.750E-03  1.07092E-09  5.82455E-16  2.07999E+01  4.82601E-09  2.0E-04
  4.000E-03  1.21847E-09  5.82453E-16  2.07998E+01  5.14763E-09  2.0E-04
  4.250E-03  1.37554E-09  5.82449E-16  2.07996E+01  5.46923E-09  2.0E-04
  4.500E-03  1.54213E-09  5.82446E-16  2.07995E+01  5.79081E-09  2.0E-04
  4.750E-03  1.71823E-09  5.82443E-16  2.07994E+01  6.11236E-09  2.0E-04
  5.000E-03  1.90386E-09  5.82439E-16  2.07993E+01  6.43389E-09  2.0E-04
  5.250E-03  2.09900E-09  5.82435E-16  2.07991E+01  6.75538E-09  1.9E-04
  5.500E-03  2.30367E-09  5.82431E-16  2.07990E+01  7.07686E-09  1.9E-04
  5.750E-03  2.51785E-09  5.82427E-16  2.07989E+01  7.39830E-09  1.9E-04
  6.000E-03  2.74156E-09  5.82423E-16  2.07987E+01  7.71971E-09  1.9E-04
  6.250E-03  2.97478E-09  5.82418E-16  2.07985E+01  8.04109E-09  1.9E-04
  6.500E-03  3.21752E-09  5.82414E-16  2.07984E+01  8.36243E-09  1.9E-04
  6.750E-03  3.46978E-09  5.82409E-16  2.07982E+01  8.68374E-09  1.9E-04
  7.000E-03  3.73156E-09  5.82404E-16  2.07980E+01  9.00501E-09  1.9E-04
  7.250E-03  4.00286E-09  5.82398E-16  2.07978E+01  9.32624E-09  1.9E-04
  7.500E-03  4.28368E-09  5.82393E-16  2.07976E+01  9.64744E-09  1.9E-04
  7.750E-03  4.57402E-09  5.82387E-16  2.07974E+01  9.96859E-09  1.9E-04
  8.000E-03  4.87388E-09  5.82381E-16  2.07972E+01  1.02897E-08  1.9E-04
  8.250E-03  5.18326E-09  5.82375E-16  2.07970E+01  1.06108E-08  1.9E-04
  8.500E-03  5.50215E-09  5.82369E-16  2.07968E+01  1.09318E-08  1.9E-04
  8.750E-03  5.83057E-09  5.82363E-16  2.07966E+01  1.12528E-08  1.9E-04
  9.000E-03  6.16850E-09  5.82356E-16  2.07963E+01  1.15737E-08  1.9E-04
  9.250E-03  6.51596E-09  5.82350E-16  2.07961E+01  1.18946E-08  1.9E-04
  9.500E-03  6.87293E-09  5.82343E-16  2.07958E+01  1.22154E-08  1.9E-04
  9.750E-03  7.23942E-09  5.82335E-16  2.07956E+01  1.25362E-08  1.9E-04
  1.000E-02  7.61544E-09  5.82328E-16  2.07953E+01  1.28569E-08  1.9E-04
  1.250E-02  1.18991E-08  5.82245E-16  2.07923E+01  1.60610E-08  1.9E-04
  1.500E-02  1.71347E-08  5.82144E-16  2.07887E+01  1.92584E-08  1.9E-04
  1.750E-02  2.33223E-08  5.82024E-16  2.07844E+01  2.24477E-08  1.9E-04
  2.000E-02  3.04617E-08  5.81886E-16  2.07795E+01  2.56276E-08  1.9E-04
  2.250E-02  3.85531E-08  5.81730E-16  2.07739E+01  2.87969E-08  1.9E-04
  2.500E-02  4.75965E-08  5.81556E-16  2.07677E+01  3.19543E-08  1.8E-04
  2.750E-02  5.75917E-08  5.81364E-16  2.07609E+01  3.50985E-08  1.8E-04
  3.000E-02  6.85389E-08  5.81154E-16  2.07534E+01  3.82283E-08  1.8E-04
  3.250E-02  8.04380E-08  5.80927E-16  2.07453E+01  4.13425E-08  1.7E-04
  3.500E-02  9.32891E-08  5.80682E-16  2.07365E+01  4.44399E-08  1.7E-04
  3.750E-02  1.07092E-07  5.80420E-16  2.07272E+01  4.75194E-08  1.7E-04
  4.000E-02  1.21847E-07  5.80141E-16  2.07172E+01  5.05799E-08  1.6E-04
  4.250E-02  1.37554E-07  5.79845E-16  2.07066E+01  5.36203E-08  1.6E-04
  4.500E-02  1.54213E-07  5.79532E-16  2.06955E+01  5.66395E-08  1.6E-04
  4.750E-02  1.71823E-07  5.79203E-16  2.06837E+01  5.96366E-08  1.5E-04
  5.000E-02  1.90386E-07  5.78857E-16  2.06714E+01  6.26106E-08  1.5E-04
  5.250E-02  2.09900E-07  5.78496E-16  2.06585E+01  6.55606E-08  1.4E-04
  5.500E-02  2.30367E-07  5.78119E-16  2.06450E+01  6.84856E-08  1.4E-04
  5.750E-02  2.51785E-07  5.77726E-16  2.06310E+01  7.13849E-08  1.3E-04
  6.000E-02  2.74156E-07  5.77318E-16  2.06164E+01  7.42577E-08  1.3E-04
  6.250E-02  2.97478E-07  5.76895E-16  2.06013E+01  7.71032E-08  1.2E-04
  6.500E-02  3.21752E-07  5.76457E-16  2.05857E+01  7.99208E-08  1.2E-04
  6.750E-02  3.46978E-07  5.76005E-16  2.05695E+01  8.27098E-08  1.1E-04
  7.000E-02  3.73156E-07  5.75538E-16  2.05529E+01  8.54696E-08  1.1E-04
  7.250E-02  4.00286E-07  5.75058E-16  2.05357E+01  8.81996E-08  1.0E-04
  7.500E-02  4.28368E-07  5.74565E-16  2.05181E+01  9.08995E-08  9.5E-05
  7.750E-02  4.57402E-07  5.74058E-16  2.05000E+01  9.35688E-08  8.9E-05
  8.000E-02  4.87388E-07  5.73538E-16  2.04814E+01  9.62071E-08  8.3E-05
  8.250E-02  5.18325E-07  5.73005E-16  2.04624E+01  9.88141E-08  7.7E-05
  8.500E-02  5.50215E-07  5.72461E-16  2.04429E+01  1.01390E-07  7.1E-05
  8.750E-02  5.83057E-07  5.71904E-16  2.04231E+01  1.03933E-07  6.6E-05
  9.000E-02  6.16850E-07  5.71336E-16  2.04028E+01  1.06445E-07  6.0E-05
  9.250E-02  6.51596E-07  5.70756E-16  2.03821E+01  1.08925E-07  5.4E-05
  9.500E-02  6.87293E-07  5.70166E-16  2.03610E+01  1.11373E-07  4.8E-05
  9.750E-02  7.23942E-07  5.69565E-16  2.03396E+01  1.13789E-07  4.2E-05
  1.000E-01  7.61543E-07  5.68954E-16  2.03177E+01  1.16173E-07  3.6E-05
  1.250E-01  1.18991E-06  5.62365E-16  2.00824E+01  1.38327E-07  1.8E-05
  1.500E-01  1.71347E-06  5.55152E-16  1.98248E+01  1.57830E-07  5.9E-05
  1.750E-01  2.33223E-06  5.47655E-16  1.95571E+01  1.75632E-07  7.9E-05
  2.000E-01  3.04617E-06  5.40162E-16  1.92895E+01  1.92979E-07  7.8E-05
  2.250E-01  3.85531E-06  5.32892E-16  1.90299E+01  2.11156E-07  5.7E-05
  2.500E-01  4.75964E-06  5.25982E-16  1.87832E+01  2.31214E-07  2.4E-05
  2.750E-01  5.75916E-06  5.19497E-16  1.85516E+01  2.53757E-07  1.2E-05
  3.000E-01  6.85388E-06  5.13436E-16  1.83351E+01  2.78831E-07  4.3E-05
  3.250E-01  8.04378E-06  5.07755E-16  1.81323E+01  3.05954E-07  6.0E-05
  3.500E-01  9.32888E-06  5.02384E-16  1.79405E+01  3.34256E-07  6.1E-05
  3.750E-01  1.07092E-05  4.97248E-16  1.77571E+01  3.62706E-07  4.7E-05
  4.000E-01  1.21846E-05  4.92284E-16  1.75798E+01  3.90367E-07  2.1E-05
  4.250E-01  1.37553E-05  4.87446E-16  1.74070E+01  4.16597E-07  8.9E-06
  4.500E-01  1.54212E-05  4.82713E-16  1.72380E+01  4.41179E-07  3.5E-05
  4.750E-01  1.71822E-05  4.78084E-16  1.70727E+01  4.64342E-07  5.1E-05
  5.000E-01  1.90385E-05  4.73570E-16  1.69115E+01  4.86666E-07  5.3E-05
  5.250E-01  2.09899E-05  4.69190E-16  1.67551E+01  5.08920E-07  4.2E-05
  5.500E-01  2.30365E-05  4.64962E-16  1.66041E+01  5.31855E-07  2.0E-05
  5.750E-01  2.51783E-05  4.60896E-16  1.64589E+01  5.56020E-07  6.4E-06
  6.000E-01  2.74153E-05  4.56989E-16  1.63194E+01  5.81636E-07  3.0E-05
  6.250E-01  2.97475E-05  4.53233E-16  1.61852E+01  6.08561E-07  4.5E-05
  6.500E-01  3.21749E-05  4.49607E-16  1.60557E+01  6.36350E-07  4.8E-05
  6.750E-01  3.46974E-05  4.46090E-16  1.59302E+01  6.64389E-07  3.8E-05
  7.000E-01  3.73152E-05  4.42661E-16  1.58077E+01  6.92065E-07  1.9E-05
  7.250E-01  4.00281E-05  4.39304E-16  1.56878E+01  7.18924E-07  4.4E-06
  7.500E-01  4.28362E-05  4.36009E-16  1.55702E+01  7.44782E-07  2.6E-05
  7.750E-01  4.57395E-05  4.32774E-16  1.54547E+01  7.69763E-07  4.1E-05
  8.000E-01  4.87380E-05  4.29602E-16  1.53414E+01  7.94244E-07  4.4E-05
  8.250E-01  5.18317E-05  4.26498E-16  1.52305E+01  8.18753E-07  3.6E-05
  8.500E-01  5.50205E-05  4.23467E-16  1.51223E+01  8.43820E-07  1.9E-05
  8.750E-01  5.83045E-05  4.20513E-16  1.50168E+01  8.69838E-07  2.8E-06
  9.000E-01  6.16838E-05  4.17634E-16  1.49140E+01  8.96966E-07  2.3E-05
  9.250E-01  6.51582E-05  4.14825E-16  1.48137E+01  9.25102E-07  3.7E-05
  9.500E-01  6.87277E-05  4.12077E-16  1.47155E+01  9.53919E-07  4.1E-05
  9.750E-01  7.23925E-05  4.09381E-16  1.46192E+01  9.82961E-07  3.5E-05
  1.000E+00  7.61524E-05  4.06726E-16  1.45244E+01  1.01178E-06  1.9E-05
  1.100E+00  9.21439E-05  3.96416E-16  1.41563E+01  1.12136E-06  3.9E-05
  1.200E+00  1.09658E-04  3.86625E-16  1.38066E+01  1.23324E-06  1.9E-05
  1.300E+00  1.28695E-04  3.77331E-16  1.34747E+01  1.35566E-06  1.9E-05
  1.400E+00  1.49255E-04  3.68292E-16  1.31519E+01  1.47478E-06  3.6E-05
  1.500E+00  1.71338E-04  3.59486E-16  1.28375E+01  1.59759E-06  1.5E-05
  1.600E+00  1.94942E-04  3.50910E-16  1.25312E+01  1.73008E-06  2.0E-05
  1.700E+00  2.20070E-04  3.42429E-16  1.22284E+01  1.86064E-06  3.3E-05
  1.800E+00  2.46720E-04  3.34054E-16  1.19293E+01  1.99599E-06  1.2E-05
  1.900E+00  2.74892E-04  3.25793E-16  1.16343E+01  2.14044E-06  2.0E-05
  2.000E+00  3.04586E-04  3.17571E-16  1.13407E+01  2.28398E-06  3.1E-05
  2.100E+00  3.35803E-04  3.09413E-16  1.10493E+01  2.43314E-06  1.0E-05
  2.200E+00  3.68542E-04  3.01333E-16  1.07608E+01  2.59093E-06  2.1E-05
  2.300E+00  4.02802E-04  2.93288E-16  1.04735E+01  2.74854E-06  3.0E-05
  2.400E+00  4.38585E-04  2.85308E-16  1.01885E+01  2.91238E-06  7.7E-06
  2.500E+00  4.75889E-04  2.77408E-16  9.90640E+00  3.08441E-06  2.2E-05
  2.600E+00  5.14715E-04  2.69562E-16  9.62624E+00  3.25673E-06  2.8E-05
  2.700E+00  5.55063E-04  2.61802E-16  9.34912E+00  3.43569E-06  5.7E-06
  2.800E+00  5.96931E-04  2.54139E-16  9.07547E+00  3.62234E-06  2.2E-05
  2.900E+00  6.40321E-04  2.46559E-16  8.80478E+00  3.80956E-06  2.7E-05
  3.000E+00  6.85233E-04  2.39088E-16  8.53800E+00  4.00364E-06  3.7E-06
  3.100E+00  7.31665E-04  2.31737E-16  8.27546E+00  4.20486E-06  2.3E-05
  3.200E+00  7.79618E-04  2.24495E-16  8.01685E+00  4.40671E-06  2.6E-05
  3.300E+00  8.29092E-04  2.17385E-16  7.76296E+00  4.61551E-06  1.8E-06
  3.400E+00  8.80086E-04  2.10414E-16  7.51402E+00  4.83081E-06  2.4E-05
  3.500E+00  9.32601E-04  2.03574E-16  7.26976E+00  5.04664E-06  2.5E-05
  3.600E+00  9.86636E-04  1.96883E-16  7.03083E+00  5.26937E-06  1.0E-07
  3.700E+00  1.04219E-03  1.90344E-16  6.79732E+00  5.49789E-06  2.5E-05
  3.800E+00  1.09927E-03  1.83951E-16  6.56903E+00  5.72673E-06  2.3E-05
  3.900E+00  1.15786E-03  1.77718E-16  6.34643E+00  5.96233E-06  1.9E-06
  4.000E+00  1.21797E-03  1.71645E-16  6.12954E+00  6.20295E-06  2.5E-05
  4.100E+00  1.27961E-03  1.65725E-16  5.91816E+00  6.44358E-06  2.2E-05
  4.200E+00  1.34276E-03  1.59970E-16  5.71265E+00  6.69079E-06  3.7E-06
  4.300E+00  1.40743E-03  1.54378E-16  5.51293E+00  6.94220E-06  2.6E-05
  4.400E+00  1.47362E-03  1.48942E-16  5.31880E+00  7.19327E-06  2.1E-05
  4.500E+00  1.54133E-03  1.43669E-16  5.13052E+00  7.45071E-06  5.5E-06
  4.600E+00  1.61056E-03  1.38556E-16  4.94794E+00  7.71153E-06  2.6E-05
  4.700E+00  1.68131E-03  1.33598E-16  4.77087E+00  7.97164E-06  2.0E-05
  4.800E+00  1.75357E-03  1.28799E-16  4.59948E+00  8.23792E-06  7.3E-06
  4.900E+00  1.82735E-03  1.24153E-16  4.43359E+00  8.50674E-06  2.7E-05
  5.000E+00  1.90265E-03  1.19657E-16  4.27301E+00  8.77451E-06  1.9E-05
  5.100E+00  1.97947E-03  1.15312E-16  4.11785E+00  9.04825E-06  9.1E-06
  5.200E+00  2.05780E-03  1.11112E-16  3.96789E+00  9.32371E-06  2.7E-05
  5.300E+00  2.13765E-03  1.07054E-16  3.82297E+00  9.59780E-06  1.7E-05
  5.400E+00  2.21902E-03  1.03138E-16  3.68312E+00  9.87770E-06  1.1E-05
  5.500E+00  2.30190E-03  9.93577E-17  3.54813E+00  1.01585E-05  2.8E-05
  5.600E+00  2.38630E-03  9.57091E-17  3.41783E+00  1.04376E-05  1.6E-05
  5.700E+00  2.47222E-03  9.21922E-17  3.29224E+00  1.07223E-05  1.3E-05
  5.800E+00  2.55965E-03  8.88010E-17  3.17114E+00  1.10071E-05  2.8E-05
  5.900E+00  2.64859E-03  8.55312E-17  3.05437E+00  1.12899E-05  1.4E-05
  6.000E+00  2.73905E-03  8.23822E-17  2.94192E+00  1.15783E-05  1.4E-05
  6.100E+00  2.83103E-03  7.93483E-17  2.83358E+00  1.18656E-05  2.8E-05
  6.200E+00  2.92452E-03  7.64255E-17  2.72920E+00  1.21508E-05  1.2E-05
  6.300E+00  3.01952E-03  7.36128E-17  2.62876E+00  1.24412E-05  1.6E-05
  6.400E+00  3.11604E-03  7.09047E-17  2.53205E+00  1.27296E-05  2.8E-05
  6.500E+00  3.21407E-03  6.82975E-17  2.43895E+00  1.30155E-05  1.1E-05
  6.600E+00  3.31362E-03  6.57900E-17  2.34940E+00  1.33063E-05  1.7E-05
  6.700E+00  3.41468E-03  6.33770E-17  2.26323E+00  1.35939E-05  2.7E-05
  6.800E+00  3.51725E-03  6.10552E-17  2.18032E+00  1.38786E-05  8.9E-06
  6.900E+00  3.62133E-03  5.88233E-17  2.10062E+00  1.41677E-05  1.9E-05
  7.000E+00  3.72692E-03  5.66763E-17  2.02395E+00  1.44524E-05  2.7E-05
  7.100E+00  3.83403E-03  5.46115E-17  1.95021E+00  1.47337E-05  7.1E-06
  7.200E+00  3.94265E-03  5.26273E-17  1.87936E+00  1.50187E-05  2.0E-05
  7.300E+00  4.05278E-03  5.07192E-17  1.81122E+00  1.52978E-05  2.6E-05
  7.400E+00  4.16442E-03  4.88848E-17  1.74571E+00  1.55728E-05  5.2E-06
  7.500E+00  4.27757E-03  4.71224E-17  1.68277E+00  1.58509E-05  2.1E-05
  7.600E+00  4.39223E-03  4.54280E-17  1.62226E+00  1.61213E-05  2.5E-05
  7.700E+00  4.50840E-03  4.37994E-17  1.56411E+00  1.63871E-05  3.3E-06
  7.800E+00  4.62608E-03  4.22351E-17  1.50824E+00  1.66549E-05  2.2E-05
  7.900E+00  4.74527E-03  4.07313E-17  1.45454E+00  1.69133E-05  2.4E-05
  8.000E+00  4.86597E-03  3.92862E-17  1.40293E+00  1.71663E-05  1.4E-06
  8.100E+00  4.98817E-03  3.78981E-17  1.35337E+00  1.74202E-05  2.3E-05
  8.200E+00  5.11188E-03  3.65639E-17  1.30572E+00  1.76629E-05  2.3E-05
  8.300E+00  5.23711E-03  3.52817E-17  1.25993E+00  1.78994E-05  5.1E-07
  8.400E+00  5.36383E-03  3.40502E-17  1.21596E+00  1.81356E-05  2.3E-05
  8.500E+00  5.49207E-03  3.28664E-17  1.17368E+00  1.83587E-05  2.2E-05
  8.600E+00  5.62181E-03  3.17288E-17  1.13305E+00  1.85751E-05  2.4E-06
  8.700E+00  5.75306E-03  3.06359E-17  1.09403E+00  1.87897E-05  2.4E-05
  8.800E+00  5.88581E-03  2.95852E-17  1.05651E+00  1.89894E-05  2.0E-05
  8.900E+00  6.02007E-03  2.85755E-17  1.02045E+00  1.91818E-05  4.2E-06
  9.000E+00  6.15583E-03  2.76053E-17  9.85802E-01  1.93712E-05  2.4E-05
  9.100E+00  6.29310E-03  2.66722E-17  9.52483E-01  1.95438E-05  1.9E-05
  9.200E+00  6.43187E-03  2.57754E-17  9.20456E-01  1.97087E-05  5.9E-06
  9.300E+00  6.57214E-03  2.49134E-17  8.89675E-01  1.98693E-05  2.4E-05
  9.400E+00  6.71392E-03  2.40843E-17  8.60064E-01  2.00114E-05  1.7E-05
  9.500E+00  6.85720E-03  2.32870E-17  8.31594E-01  2.01456E-05  7.5E-06
  9.600E+00  7.00198E-03  2.25205E-17  8.04222E-01  2.02743E-05  2.4E-05
  9.700E+00  7.14827E-03  2.17829E-17  7.77881E-01  2.03828E-05  1.5E-05
  9.800E+00  7.29605E-03  2.10734E-17  7.52546E-01  2.04834E-05  9.0E-06
  9.900E+00  7.44534E-03  2.03910E-17  7.28177E-01  2.05773E-05  2.3E-05
  1.000E+01  7.59612E-03  1.97341E-17  7.04717E-01  2.06495E-05  1.3E-05
  1.025E+01  7.97965E-03  1.81980E-17  6.49863E-01  2.07895E-05  1.1E-05
  1.050E+01  8.37255E-03  1.68010E-17  5.99973E-01  2.08462E-05  2.2E-05
  1.075E+01  8.77480E-03  1.55291E-17  5.54553E-01  2.08139E-05  8.3E-06
  1.100E+01  9.18641E-03  1.43700E-17  5.13162E-01  2.06894E-05  1.3E-05
  1.125E+01  9.60736E-03  1.33128E-17  4.75409E-01  2.04719E-05  1.8E-05
  1.150E+01  1.00376E-02  1.23476E-17  4.40940E-01  2.01598E-05  3.3E-06
  1.175E+01  1.04773E-02  1.14654E-17  4.09439E-01  1.97489E-05  1.4E-05
  1.200E+01  1.09262E-02  1.06585E-17  3.80621E-01  1.92319E-05  1.4E-05
  1.225E+01  1.13844E-02  9.91952E-18  3.54233E-01  1.86013E-05  1.1E-06
  1.250E+01  1.18520E-02  9.24220E-18  3.30045E-01  1.78523E-05  1.3E-05
  1.275E+01  1.23288E-02  8.62081E-18  3.07855E-01  1.69838E-05  8.9E-06
  1.300E+01  1.28150E-02  8.05019E-18  2.87477E-01  1.59959E-05  4.5E-06
  1.325E+01  1.33104E-02  7.52566E-18  2.68746E-01  1.48866E-05  1.1E-05
  1.350E+01  1.38150E-02  7.04298E-18  2.51509E-01  1.36504E-05  3.4E-06
  1.375E+01  1.43290E-02  6.59830E-18  2.35629E-01  1.22804E-05  6.6E-06
