 #
 # Subroutine ELSEPA. Elastic scattering of electrons and positrons
 #                    by neutral atoms and positive ions
 #
 # Projectile: electron
 # Kinetic energy = 4.00000E+02 eV = 1.46997E+01 a.u.
 #
 # Element:  O,  Z =   8,  atomic weight = 1.59994E+01 g/mol
 #
 # Nuclear model: Fermi distribution
 #                Average radius = 2.69620E-13 cm
 #                Skin thickness = 5.46000E-14 cm
 #
 # Number of electrons =  8
 #
 # Electron density: Read from file z_008.den   
 #                   Number of data points =  681
 #                   Volume integral = 8.00000E+00
 #
 # Furness-McCarthy exchange potential
 #
 # LDA absorption potential (only electron-hole excitations):
 #                           Delta = 1.97000E+00 eV
 #                            Aabs = 2.00000E+00
 #
 # Correlation-polarization potential (LDA):
 #                           Alpha = 8.02000E-25 cm**3
 #                            Bpol = 4.67707E+00
 #
 # Total elastic cross section = 1.01796E-16 cm**2 = 3.63522E+00 a0**2
 # 1st transport cross section = 1.90547E-17 cm**2 = 6.80456E-01 a0**2
 # 2nd transport cross section = 3.04808E-17 cm**2 = 1.08849E+00 a0**2
 #
 #    Absorption cross section = 9.04305E-17 cm**2 = 3.22933E+00 a0**2
 #   Grand total cross section = 1.92229E-16 cm**2 = 6.86463E+00 a0**2
 #
 #
 # Differential cross section:                       MU=(1-COS(THETA))/2
 #
 #  THETA        MU          DCS          DCS        Sherman      error
 #  (deg)                 (cm**2/sr)   (a0**2/sr)    function
 #----------------------------------------------------------------------
  0.000E+00  0.00000E+00  6.80685E-16  2.43077E+01  0.00000E+00  3.9E-07
  1.000E-04  7.61557E-13  6.80685E-16  2.43077E+01  2.26417E-10  3.9E-07
  1.250E-04  1.18994E-12  6.80685E-16  2.43077E+01  2.83021E-10  3.9E-07
  1.500E-04  1.71346E-12  6.80685E-16  2.43077E+01  3.39625E-10  3.9E-07
  1.750E-04  2.33225E-12  6.80685E-16  2.43077E+01  3.96229E-10  3.9E-07
  2.000E-04  3.04617E-12  6.80685E-16  2.43077E+01  4.52833E-10  3.9E-07
  2.250E-04  3.85530E-12  6.80685E-16  2.43077E+01  5.09437E-10  3.9E-07
  2.500E-04  4.75964E-12  6.80685E-16  2.43077E+01  5.66042E-10  3.9E-07
  2.750E-04  5.75917E-12  6.80685E-16  2.43077E+01  6.22646E-10  3.9E-07
  3.000E-04  6.85391E-12  6.80685E-16  2.43077E+01  6.79250E-10  3.9E-07
  3.250E-04  8.04379E-12  6.80685E-16  2.43077E+01  7.35854E-10  3.9E-07
  3.500E-04  9.32893E-12  6.80685E-16  2.43077E+01  7.92458E-10  3.9E-07
  3.750E-04  1.07092E-11  6.80685E-16  2.43077E+01  8.49062E-10  3.9E-07
  4.000E-04  1.21847E-11  6.80685E-16  2.43077E+01  9.05666E-10  3.9E-07
  4.250E-04  1.37554E-11  6.80685E-16  2.43077E+01  9.62271E-10  3.9E-07
  4.500E-04  1.54213E-11  6.80685E-16  2.43077E+01  1.01887E-09  3.9E-07
  4.750E-04  1.71823E-11  6.80685E-16  2.43077E+01  1.07548E-09  3.9E-07
  5.000E-04  1.90386E-11  6.80685E-16  2.43077E+01  1.13208E-09  3.9E-07
  5.250E-04  2.09900E-11  6.80685E-16  2.43077E+01  1.18869E-09  3.9E-07
  5.500E-04  2.30367E-11  6.80685E-16  2.43077E+01  1.24529E-09  3.9E-07
  5.750E-04  2.51785E-11  6.80685E-16  2.43077E+01  1.30190E-09  3.9E-07
  6.000E-04  2.74156E-11  6.80685E-16  2.43077E+01  1.35850E-09  3.9E-07
  6.250E-04  2.97478E-11  6.80685E-16  2.43077E+01  1.41510E-09  3.9E-07
  6.500E-04  3.21752E-11  6.80685E-16  2.43077E+01  1.47171E-09  3.9E-07
  6.750E-04  3.46979E-11  6.80685E-16  2.43077E+01  1.52831E-09  3.9E-07
  7.000E-04  3.73157E-11  6.80685E-16  2.43077E+01  1.58492E-09  3.9E-07
  7.250E-04  4.00286E-11  6.80685E-16  2.43077E+01  1.64152E-09  3.9E-07
  7.500E-04  4.28368E-11  6.80685E-16  2.43077E+01  1.69812E-09  3.9E-07
  7.750E-04  4.57402E-11  6.80685E-16  2.43077E+01  1.75473E-09  3.9E-07
  8.000E-04  4.87388E-11  6.80685E-16  2.43077E+01  1.81133E-09  3.9E-07
  8.250E-04  5.18325E-11  6.80685E-16  2.43077E+01  1.86794E-09  3.9E-07
  8.500E-04  5.50215E-11  6.80685E-16  2.43077E+01  1.92454E-09  3.9E-07
  8.750E-04  5.83057E-11  6.80685E-16  2.43077E+01  1.98115E-09  3.9E-07
  9.000E-04  6.16850E-11  6.80685E-16  2.43077E+01  2.03775E-09  3.9E-07
  9.250E-04  6.51595E-11  6.80685E-16  2.43077E+01  2.09435E-09  3.9E-07
  9.500E-04  6.87293E-11  6.80685E-16  2.43077E+01  2.15096E-09  3.9E-07
  9.750E-04  7.23943E-11  6.80685E-16  2.43077E+01  2.20756E-09  3.9E-07
  1.000E-03  7.61544E-11  6.80685E-16  2.43077E+01  2.26417E-09  3.9E-07
  1.250E-03  1.18991E-10  6.80685E-16  2.43077E+01  2.83021E-09  3.9E-07
  1.500E-03  1.71347E-10  6.80685E-16  2.43077E+01  3.39625E-09  3.9E-07
  1.750E-03  2.33223E-10  6.80685E-16  2.43077E+01  3.96229E-09  3.9E-07
  2.000E-03  3.04617E-10  6.80685E-16  2.43077E+01  4.52833E-09  3.9E-07
  2.250E-03  3.85531E-10  6.80685E-16  2.43077E+01  5.09437E-09  3.9E-07
  2.500E-03  4.75965E-10  6.80685E-16  2.43077E+01  5.66042E-09  3.9E-07
  2.750E-03  5.75917E-10  6.80684E-16  2.43077E+01  6.22646E-09  3.9E-07
  3.000E-03  6.85389E-10  6.80684E-16  2.43077E+01  6.79250E-09  3.9E-07
  3.250E-03  8.04380E-10  6.80684E-16  2.43077E+01  7.35854E-09  3.9E-07
  3.500E-03  9.32891E-10  6.80684E-16  2.43077E+01  7.92458E-09  3.9E-07
  3.750E-03  1.07092E-09  6.80684E-16  2.43077E+01  8.49062E-09  3.9E-07
  4.000E-03  1.21847E-09  6.80684E-16  2.43077E+01  9.05667E-09  3.9E-07
  4.250E-03  1.37554E-09  6.80683E-16  2.43076E+01  9.62271E-09  3.9E-07
  4.500E-03  1.54213E-09  6.80683E-16  2.43076E+01  1.01887E-08  3.9E-07
  4.750E-03  1.71823E-09  6.80683E-16  2.43076E+01  1.07548E-08  3.9E-07
  5.000E-03  1.90386E-09  6.80683E-16  2.43076E+01  1.13208E-08  3.9E-07
  5.250E-03  2.09900E-09  6.80683E-16  2.43076E+01  1.18869E-08  3.9E-07
  5.500E-03  2.30367E-09  6.80682E-16  2.43076E+01  1.24529E-08  3.9E-07
  5.750E-03  2.51785E-09  6.80682E-16  2.43076E+01  1.30190E-08  3.9E-07
  6.000E-03  2.74156E-09  6.80682E-16  2.43076E+01  1.35850E-08  3.9E-07
  6.250E-03  2.97478E-09  6.80681E-16  2.43076E+01  1.41510E-08  3.9E-07
  6.500E-03  3.21752E-09  6.80681E-16  2.43076E+01  1.47171E-08  3.9E-07
  6.750E-03  3.46978E-09  6.80681E-16  2.43076E+01  1.52831E-08  3.9E-07
  7.000E-03  3.73156E-09  6.80680E-16  2.43075E+01  1.58492E-08  3.9E-07
  7.250E-03  4.00286E-09  6.80680E-16  2.43075E+01  1.64152E-08  3.9E-07
  7.500E-03  4.28368E-09  6.80680E-16  2.43075E+01  1.69812E-08  3.9E-07
  7.750E-03  4.57402E-09  6.80679E-16  2.43075E+01  1.75473E-08  3.9E-07
  8.000E-03  4.87388E-09  6.80679E-16  2.43075E+01  1.81133E-08  3.9E-07
  8.250E-03  5.18326E-09  6.80679E-16  2.43075E+01  1.86794E-08  3.9E-07
  8.500E-03  5.50215E-09  6.80678E-16  2.43075E+01  1.92454E-08  3.9E-07
  8.750E-03  5.83057E-09  6.80678E-16  2.43074E+01  1.98115E-08  3.9E-07
  9.000E-03  6.16850E-09  6.80677E-16  2.43074E+01  2.03775E-08  3.9E-07
  9.250E-03  6.51596E-09  6.80677E-16  2.43074E+01  2.09435E-08  3.9E-07
  9.500E-03  6.87293E-09  6.80676E-16  2.43074E+01  2.15096E-08  3.9E-07
  9.750E-03  7.23942E-09  6.80676E-16  2.43074E+01  2.20756E-08  3.9E-07
  1.000E-02  7.61544E-09  6.80675E-16  2.43074E+01  2.26417E-08  3.9E-07
  1.250E-02  1.18991E-08  6.80670E-16  2.43072E+01  2.83021E-08  3.9E-07
  1.500E-02  1.71347E-08  6.80663E-16  2.43069E+01  3.39625E-08  3.9E-07
  1.750E-02  2.33223E-08  6.80655E-16  2.43066E+01  3.96229E-08  3.9E-07
  2.000E-02  3.04617E-08  6.80646E-16  2.43063E+01  4.52834E-08  3.9E-07
  2.250E-02  3.85531E-08  6.80636E-16  2.43059E+01  5.09438E-08  3.9E-07
  2.500E-02  4.75965E-08  6.80624E-16  2.43055E+01  5.66043E-08  3.9E-07
  2.750E-02  5.75917E-08  6.80611E-16  2.43051E+01  6.22647E-08  3.9E-07
  3.000E-02  6.85389E-08  6.80597E-16  2.43046E+01  6.79252E-08  3.9E-07
  3.250E-02  8.04380E-08  6.80582E-16  2.43040E+01  7.35856E-08  3.8E-07
  3.500E-02  9.32891E-08  6.80566E-16  2.43034E+01  7.92461E-08  3.8E-07
  3.750E-02  1.07092E-07  6.80548E-16  2.43028E+01  8.49066E-08  3.8E-07
  4.000E-02  1.21847E-07  6.80529E-16  2.43021E+01  9.05671E-08  3.8E-07
  4.250E-02  1.37554E-07  6.80509E-16  2.43014E+01  9.62276E-08  3.8E-07
  4.500E-02  1.54213E-07  6.80488E-16  2.43007E+01  1.01888E-07  3.8E-07
  4.750E-02  1.71823E-07  6.80465E-16  2.42999E+01  1.07549E-07  3.8E-07
  5.000E-02  1.90386E-07  6.80441E-16  2.42990E+01  1.13209E-07  3.8E-07
  5.250E-02  2.09900E-07  6.80416E-16  2.42981E+01  1.18870E-07  3.8E-07
  5.500E-02  2.30367E-07  6.80390E-16  2.42972E+01  1.24530E-07  3.8E-07
  5.750E-02  2.51785E-07  6.80363E-16  2.42962E+01  1.30191E-07  3.8E-07
  6.000E-02  2.74156E-07  6.80334E-16  2.42952E+01  1.35851E-07  3.8E-07
  6.250E-02  2.97478E-07  6.80305E-16  2.42941E+01  1.41512E-07  3.8E-07
  6.500E-02  3.21752E-07  6.80274E-16  2.42930E+01  1.47173E-07  3.8E-07
  6.750E-02  3.46978E-07  6.80241E-16  2.42919E+01  1.52833E-07  3.7E-07
  7.000E-02  3.73156E-07  6.80208E-16  2.42907E+01  1.58494E-07  3.7E-07
  7.250E-02  4.00286E-07  6.80173E-16  2.42894E+01  1.64155E-07  3.7E-07
  7.500E-02  4.28368E-07  6.80138E-16  2.42882E+01  1.69815E-07  3.7E-07
  7.750E-02  4.57402E-07  6.80101E-16  2.42868E+01  1.75476E-07  3.7E-07
  8.000E-02  4.87388E-07  6.80062E-16  2.42855E+01  1.81137E-07  3.7E-07
  8.250E-02  5.18325E-07  6.80023E-16  2.42841E+01  1.86798E-07  3.7E-07
  8.500E-02  5.50215E-07  6.79982E-16  2.42826E+01  1.92458E-07  3.7E-07
  8.750E-02  5.83057E-07  6.79941E-16  2.42811E+01  1.98119E-07  3.6E-07
  9.000E-02  6.16850E-07  6.79898E-16  2.42796E+01  2.03780E-07  3.6E-07
  9.250E-02  6.51596E-07  6.79854E-16  2.42780E+01  2.09441E-07  3.6E-07
  9.500E-02  6.87293E-07  6.79808E-16  2.42764E+01  2.15102E-07  3.6E-07
  9.750E-02  7.23942E-07  6.79762E-16  2.42747E+01  2.20763E-07  3.6E-07
  1.000E-01  7.61543E-07  6.79714E-16  2.42730E+01  2.26424E-07  3.6E-07
  1.250E-01  1.18991E-06  6.79173E-16  2.42537E+01  2.83035E-07  3.4E-07
  1.500E-01  1.71347E-06  6.78516E-16  2.42302E+01  3.39651E-07  3.2E-07
  1.750E-01  2.33223E-06  6.77746E-16  2.42028E+01  3.96273E-07  3.0E-07
  2.000E-01  3.04617E-06  6.76867E-16  2.41714E+01  4.52902E-07  2.8E-07
  2.250E-01  3.85531E-06  6.75882E-16  2.41362E+01  5.09542E-07  2.5E-07
  2.500E-01  4.75964E-06  6.74795E-16  2.40974E+01  5.66196E-07  2.2E-07
  2.750E-01  5.75916E-06  6.73611E-16  2.40551E+01  6.22866E-07  1.9E-07
  3.000E-01  6.85388E-06  6.72334E-16  2.40095E+01  6.79556E-07  1.6E-07
  3.250E-01  8.04378E-06  6.70969E-16  2.39608E+01  7.36271E-07  1.3E-07
  3.500E-01  9.32888E-06  6.69522E-16  2.39091E+01  7.93017E-07  1.0E-07
  3.750E-01  1.07092E-05  6.67998E-16  2.38546E+01  8.49798E-07  1.0E-07
  4.000E-01  1.21846E-05  6.66401E-16  2.37976E+01  9.06622E-07  1.0E-07
  4.250E-01  1.37553E-05  6.64739E-16  2.37383E+01  9.63495E-07  1.0E-07
  4.500E-01  1.54212E-05  6.63017E-16  2.36768E+01  1.02042E-06  1.0E-07
  4.750E-01  1.71822E-05  6.61240E-16  2.36133E+01  1.07742E-06  1.0E-07
  5.000E-01  1.90385E-05  6.59414E-16  2.35481E+01  1.13449E-06  1.0E-07
  5.250E-01  2.09899E-05  6.57545E-16  2.34814E+01  1.19164E-06  1.0E-07
  5.500E-01  2.30365E-05  6.55638E-16  2.34133E+01  1.24888E-06  1.1E-07
  5.750E-01  2.51783E-05  6.53699E-16  2.33440E+01  1.30622E-06  1.3E-07
  6.000E-01  2.74153E-05  6.51732E-16  2.32738E+01  1.36368E-06  1.4E-07
  6.250E-01  2.97475E-05  6.49744E-16  2.32028E+01  1.42126E-06  1.5E-07
  6.500E-01  3.21749E-05  6.47738E-16  2.31311E+01  1.47897E-06  1.6E-07
  6.750E-01  3.46974E-05  6.45719E-16  2.30590E+01  1.53683E-06  1.6E-07
  7.000E-01  3.73152E-05  6.43691E-16  2.29866E+01  1.59484E-06  1.6E-07
  7.250E-01  4.00281E-05  6.41659E-16  2.29141E+01  1.65301E-06  1.6E-07
  7.500E-01  4.28362E-05  6.39626E-16  2.28415E+01  1.71136E-06  1.5E-07
  7.750E-01  4.57395E-05  6.37596E-16  2.27690E+01  1.76989E-06  1.4E-07
  8.000E-01  4.87380E-05  6.35571E-16  2.26967E+01  1.82862E-06  1.3E-07
  8.250E-01  5.18317E-05  6.33554E-16  2.26246E+01  1.88754E-06  1.1E-07
  8.500E-01  5.50205E-05  6.31548E-16  2.25530E+01  1.94667E-06  1.0E-07
  8.750E-01  5.83045E-05  6.29554E-16  2.24818E+01  2.00602E-06  1.0E-07
  9.000E-01  6.16838E-05  6.27575E-16  2.24111E+01  2.06559E-06  1.0E-07
  9.250E-01  6.51582E-05  6.25612E-16  2.23410E+01  2.12539E-06  1.0E-07
  9.500E-01  6.87277E-05  6.23666E-16  2.22715E+01  2.18541E-06  1.0E-07
  9.750E-01  7.23925E-05  6.21738E-16  2.22027E+01  2.24567E-06  1.0E-07
  1.000E+00  7.61524E-05  6.19829E-16  2.21345E+01  2.30617E-06  1.0E-07
  1.100E+00  9.21439E-05  6.12382E-16  2.18685E+01  2.55050E-06  1.0E-07
  1.200E+00  1.09658E-04  6.05226E-16  2.16130E+01  2.79847E-06  1.2E-07
  1.300E+00  1.28695E-04  5.98314E-16  2.13662E+01  3.04973E-06  1.2E-07
  1.400E+00  1.49255E-04  5.91585E-16  2.11259E+01  3.30378E-06  1.0E-07
  1.500E+00  1.71338E-04  5.84975E-16  2.08898E+01  3.56009E-06  1.0E-07
  1.600E+00  1.94942E-04  5.78437E-16  2.06564E+01  3.81824E-06  1.0E-07
  1.700E+00  2.20070E-04  5.71946E-16  2.04246E+01  4.07796E-06  1.0E-07
  1.800E+00  2.46720E-04  5.65497E-16  2.01942E+01  4.33923E-06  1.1E-07
  1.900E+00  2.74892E-04  5.59100E-16  1.99658E+01  4.60226E-06  1.0E-07
  2.000E+00  3.04586E-04  5.52778E-16  1.97400E+01  4.86741E-06  1.0E-07
  2.100E+00  3.35803E-04  5.46551E-16  1.95177E+01  5.13512E-06  1.0E-07
  2.200E+00  3.68542E-04  5.40435E-16  1.92993E+01  5.40578E-06  1.0E-07
  2.300E+00  4.02802E-04  5.34436E-16  1.90850E+01  5.67967E-06  1.0E-07
  2.400E+00  4.38585E-04  5.28550E-16  1.88749E+01  5.95684E-06  1.0E-07
  2.500E+00  4.75889E-04  5.22764E-16  1.86682E+01  6.23719E-06  1.0E-07
  2.600E+00  5.14715E-04  5.17062E-16  1.84646E+01  6.52043E-06  1.0E-07
  2.700E+00  5.55063E-04  5.11426E-16  1.82634E+01  6.80623E-06  1.0E-07
  2.800E+00  5.96931E-04  5.05844E-16  1.80640E+01  7.09428E-06  1.0E-07
  2.900E+00  6.40321E-04  5.00308E-16  1.78663E+01  7.38439E-06  1.0E-07
  3.000E+00  6.85233E-04  4.94818E-16  1.76703E+01  7.67655E-06  1.0E-07
  3.100E+00  7.31665E-04  4.89378E-16  1.74760E+01  7.97093E-06  1.0E-07
  3.200E+00  7.79618E-04  4.83994E-16  1.72837E+01  8.26785E-06  1.0E-07
  3.300E+00  8.29092E-04  4.78673E-16  1.70937E+01  8.56769E-06  1.0E-07
  3.400E+00  8.80086E-04  4.73419E-16  1.69061E+01  8.87081E-06  1.0E-07
  3.500E+00  9.32601E-04  4.68233E-16  1.67209E+01  9.17744E-06  1.0E-07
  3.600E+00  9.86636E-04  4.63111E-16  1.65380E+01  9.48766E-06  1.0E-07
  3.700E+00  1.04219E-03  4.58046E-16  1.63571E+01  9.80137E-06  1.0E-07
  3.800E+00  1.09927E-03  4.53032E-16  1.61781E+01  1.01184E-05  1.0E-07
  3.900E+00  1.15786E-03  4.48061E-16  1.60006E+01  1.04383E-05  1.0E-07
  4.000E+00  1.21797E-03  4.43128E-16  1.58244E+01  1.07610E-05  1.0E-07
  4.100E+00  1.27961E-03  4.38231E-16  1.56495E+01  1.10863E-05  1.0E-07
  4.200E+00  1.34276E-03  4.33371E-16  1.54760E+01  1.14143E-05  1.0E-07
  4.300E+00  1.40743E-03  4.28550E-16  1.53038E+01  1.17452E-05  1.0E-07
  4.400E+00  1.47362E-03  4.23771E-16  1.51331E+01  1.20792E-05  1.0E-07
  4.500E+00  1.54133E-03  4.19037E-16  1.49641E+01  1.24168E-05  1.0E-07
  4.600E+00  1.61056E-03  4.14351E-16  1.47967E+01  1.27584E-05  1.0E-07
  4.700E+00  1.68131E-03  4.09710E-16  1.46310E+01  1.31041E-05  1.0E-07
  4.800E+00  1.75357E-03  4.05113E-16  1.44669E+01  1.34540E-05  1.0E-07
  4.900E+00  1.82735E-03  4.00557E-16  1.43041E+01  1.38079E-05  1.0E-07
  5.000E+00  1.90265E-03  3.96037E-16  1.41427E+01  1.41657E-05  1.0E-07
  5.100E+00  1.97947E-03  3.91550E-16  1.39825E+01  1.45271E-05  1.0E-07
  5.200E+00  2.05780E-03  3.87094E-16  1.38234E+01  1.48918E-05  1.0E-07
  5.300E+00  2.13765E-03  3.82670E-16  1.36654E+01  1.52598E-05  1.0E-07
  5.400E+00  2.21902E-03  3.78277E-16  1.35085E+01  1.56313E-05  1.0E-07
  5.500E+00  2.30190E-03  3.73919E-16  1.33529E+01  1.60064E-05  1.0E-07
  5.600E+00  2.38630E-03  3.69597E-16  1.31985E+01  1.63855E-05  1.0E-07
  5.700E+00  2.47222E-03  3.65312E-16  1.30455E+01  1.67691E-05  1.0E-07
  5.800E+00  2.55965E-03  3.61065E-16  1.28939E+01  1.71574E-05  1.0E-07
  5.900E+00  2.64859E-03  3.56855E-16  1.27435E+01  1.75507E-05  1.0E-07
  6.000E+00  2.73905E-03  3.52681E-16  1.25945E+01  1.79489E-05  1.0E-07
  6.100E+00  2.83103E-03  3.48541E-16  1.24466E+01  1.83519E-05  1.0E-07
  6.200E+00  2.92452E-03  3.44432E-16  1.22999E+01  1.87594E-05  1.0E-07
  6.300E+00  3.01952E-03  3.40353E-16  1.21542E+01  1.91712E-05  1.0E-07
  6.400E+00  3.11604E-03  3.36304E-16  1.20096E+01  1.95871E-05  1.0E-07
  6.500E+00  3.21407E-03  3.32286E-16  1.18661E+01  2.00071E-05  1.0E-07
  6.600E+00  3.31362E-03  3.28298E-16  1.17237E+01  2.04313E-05  1.0E-07
  6.700E+00  3.41468E-03  3.24343E-16  1.15825E+01  2.08601E-05  1.0E-07
  6.800E+00  3.51725E-03  3.20422E-16  1.14425E+01  2.12938E-05  1.0E-07
  6.900E+00  3.62133E-03  3.16536E-16  1.13037E+01  2.17330E-05  1.0E-07
  7.000E+00  3.72692E-03  3.12685E-16  1.11662E+01  2.21779E-05  1.0E-07
  7.100E+00  3.83403E-03  3.08868E-16  1.10299E+01  2.26286E-05  1.0E-07
  7.200E+00  3.94265E-03  3.05084E-16  1.08947E+01  2.30851E-05  1.0E-07
  7.300E+00  4.05278E-03  3.01332E-16  1.07607E+01  2.35471E-05  1.0E-07
  7.400E+00  4.16442E-03  2.97610E-16  1.06279E+01  2.40144E-05  1.0E-07
  7.500E+00  4.27757E-03  2.93919E-16  1.04960E+01  2.44866E-05  1.0E-07
  7.600E+00  4.39223E-03  2.90259E-16  1.03653E+01  2.49638E-05  1.0E-07
  7.700E+00  4.50840E-03  2.86629E-16  1.02357E+01  2.54458E-05  1.0E-07
  7.800E+00  4.62608E-03  2.83031E-16  1.01072E+01  2.59330E-05  1.0E-07
  7.900E+00  4.74527E-03  2.79466E-16  9.97993E+00  2.64258E-05  1.0E-07
  8.000E+00  4.86597E-03  2.75935E-16  9.85383E+00  2.69245E-05  1.0E-07
  8.100E+00  4.98817E-03  2.72439E-16  9.72896E+00  2.74297E-05  1.0E-07
  8.200E+00  5.11188E-03  2.68976E-16  9.60530E+00  2.79416E-05  1.0E-07
  8.300E+00  5.23711E-03  2.65546E-16  9.48283E+00  2.84602E-05  1.0E-07
  8.400E+00  5.36383E-03  2.62149E-16  9.36152E+00  2.89854E-05  1.0E-07
  8.500E+00  5.49207E-03  2.58784E-16  9.24135E+00  2.95169E-05  1.0E-07
  8.600E+00  5.62181E-03  2.55450E-16  9.12230E+00  3.00543E-05  1.0E-07
  8.700E+00  5.75306E-03  2.52148E-16  9.00435E+00  3.05975E-05  1.0E-07
  8.800E+00  5.88581E-03  2.48876E-16  8.88753E+00  3.11462E-05  1.0E-07
  8.900E+00  6.02007E-03  2.45636E-16  8.77184E+00  3.17008E-05  1.0E-07
  9.000E+00  6.15583E-03  2.42429E-16  8.65731E+00  3.22614E-05  1.0E-07
  9.100E+00  6.29310E-03  2.39256E-16  8.54397E+00  3.28286E-05  1.0E-07
  9.200E+00  6.43187E-03  2.36115E-16  8.43183E+00  3.34029E-05  1.0E-07
  9.300E+00  6.57214E-03  2.33008E-16  8.32088E+00  3.39846E-05  1.0E-07
  9.400E+00  6.71392E-03  2.29935E-16  8.21112E+00  3.45739E-05  1.0E-07
  9.500E+00  6.85720E-03  2.26894E-16  8.10253E+00  3.51709E-05  1.0E-07
  9.600E+00  7.00198E-03  2.23885E-16  7.99509E+00  3.57752E-05  1.0E-07
  9.700E+00  7.14827E-03  2.20908E-16  7.88877E+00  3.63864E-05  1.0E-07
  9.800E+00  7.29605E-03  2.17962E-16  7.78357E+00  3.70043E-05  1.0E-07
  9.900E+00  7.44534E-03  2.15048E-16  7.67949E+00  3.76285E-05  1.0E-07
  1.000E+01  7.59612E-03  2.12164E-16  7.57652E+00  3.82591E-05  1.0E-07
  1.025E+01  7.97965E-03  2.05096E-16  7.32412E+00  3.98654E-05  1.0E-07
  1.050E+01  8.37255E-03  1.98231E-16  7.07897E+00  4.15205E-05  1.0E-07
  1.075E+01  8.77480E-03  1.91566E-16  6.84096E+00  4.32282E-05  1.0E-07
  1.100E+01  9.18641E-03  1.85094E-16  6.60982E+00  4.49841E-05  1.0E-07
  1.125E+01  9.60736E-03  1.78811E-16  6.38546E+00  4.67842E-05  1.0E-07
  1.150E+01  1.00376E-02  1.72721E-16  6.16796E+00  4.86325E-05  1.0E-07
  1.175E+01  1.04773E-02  1.66822E-16  5.95731E+00  5.05368E-05  1.0E-07
  1.200E+01  1.09262E-02  1.61109E-16  5.75329E+00  5.24973E-05  1.0E-07
  1.225E+01  1.13844E-02  1.55575E-16  5.55569E+00  5.45073E-05  1.0E-07
  1.250E+01  1.18520E-02  1.50220E-16  5.36444E+00  5.65650E-05  1.0E-07
  1.275E+01  1.23288E-02  1.45042E-16  5.17955E+00  5.86777E-05  1.0E-07
  1.300E+01  1.28150E-02  1.40039E-16  5.00089E+00  6.08518E-05  1.0E-07
  1.325E+01  1.33104E-02  1.35204E-16  4.82823E+00  6.30831E-05  1.0E-07
  1.350E+01  1.38150E-02  1.30532E-16  4.66137E+00  6.53639E-05  1.0E-07
  1.375E+01  1.43290E-02  1.26020E-16  4.50027E+00  6.76965E-05  1.0E-07
