 #
 # Subroutine ELSEPA. Elastic scattering of electrons and positrons
 #                    by neutral atoms and positive ions
 #
 # Projectile: electron
 # Kinetic energy = 1.80000E+03 eV = 6.61488E+01 a.u.
 #
 # Element:  O,  Z =   8,  atomic weight = 1.59994E+01 g/mol
 #
 # Nuclear model: Fermi distribution
 #                Average radius = 2.69620E-13 cm
 #                Skin thickness = 5.46000E-14 cm
 #
 # Number of electrons =  8
 #
 # Electron density: Read from file z_008.den   
 #                   Number of data points =  681
 #                   Volume integral = 8.00000E+00
 #
 # Furness-McCarthy exchange potential
 #
 # LDA absorption potential (only electron-hole excitations):
 #                           Delta = 1.97000E+00 eV
 #                            Aabs = 2.00000E+00
 #
 # Correlation-polarization potential (LDA):
 #                           Alpha = 8.02000E-25 cm**3
 #                            Bpol = 1.04583E+01
 #
 # Total elastic cross section = 3.28728E-17 cm**2 = 1.17391E+00 a0**2
 # 1st transport cross section = 2.04008E-18 cm**2 = 7.28526E-02 a0**2
 # 2nd transport cross section = 4.37304E-18 cm**2 = 1.56164E-01 a0**2
 #
 #    Absorption cross section = 2.45686E-17 cm**2 = 8.77360E-01 a0**2
 #   Grand total cross section = 5.74426E-17 cm**2 = 2.05131E+00 a0**2
 #
 #
 # Differential cross section:                       MU=(1-COS(THETA))/2
 #
 #  THETA        MU          DCS          DCS        Sherman      error
 #  (deg)                 (cm**2/sr)   (a0**2/sr)    function
 #----------------------------------------------------------------------
  0.000E+00  0.00000E+00  6.26010E-16  2.23552E+01  0.00000E+00  2.0E-05
  1.000E-04  7.61557E-13  6.26010E-16  2.23552E+01  1.73429E-10  2.0E-05
  1.250E-04  1.18994E-12  6.26010E-16  2.23552E+01  2.16786E-10  2.0E-05
  1.500E-04  1.71346E-12  6.26010E-16  2.23552E+01  2.60144E-10  2.0E-05
  1.750E-04  2.33225E-12  6.26010E-16  2.23552E+01  3.03501E-10  2.0E-05
  2.000E-04  3.04617E-12  6.26010E-16  2.23552E+01  3.46858E-10  2.0E-05
  2.250E-04  3.85530E-12  6.26010E-16  2.23552E+01  3.90215E-10  2.0E-05
  2.500E-04  4.75964E-12  6.26010E-16  2.23552E+01  4.33573E-10  2.0E-05
  2.750E-04  5.75917E-12  6.26010E-16  2.23552E+01  4.76930E-10  2.0E-05
  3.000E-04  6.85391E-12  6.26010E-16  2.23552E+01  5.20287E-10  2.0E-05
  3.250E-04  8.04379E-12  6.26010E-16  2.23552E+01  5.63644E-10  2.0E-05
  3.500E-04  9.32893E-12  6.26010E-16  2.23552E+01  6.07002E-10  2.0E-05
  3.750E-04  1.07092E-11  6.26010E-16  2.23552E+01  6.50359E-10  2.0E-05
  4.000E-04  1.21847E-11  6.26010E-16  2.23552E+01  6.93716E-10  2.0E-05
  4.250E-04  1.37554E-11  6.26010E-16  2.23552E+01  7.37074E-10  2.0E-05
  4.500E-04  1.54213E-11  6.26010E-16  2.23552E+01  7.80431E-10  2.0E-05
  4.750E-04  1.71823E-11  6.26010E-16  2.23552E+01  8.23788E-10  2.0E-05
  5.000E-04  1.90386E-11  6.26010E-16  2.23552E+01  8.67145E-10  2.0E-05
  5.250E-04  2.09900E-11  6.26010E-16  2.23552E+01  9.10502E-10  2.0E-05
  5.500E-04  2.30367E-11  6.26010E-16  2.23552E+01  9.53860E-10  2.0E-05
  5.750E-04  2.51785E-11  6.26010E-16  2.23552E+01  9.97217E-10  2.0E-05
  6.000E-04  2.74156E-11  6.26010E-16  2.23552E+01  1.04057E-09  2.0E-05
  6.250E-04  2.97478E-11  6.26010E-16  2.23552E+01  1.08393E-09  2.0E-05
  6.500E-04  3.21752E-11  6.26010E-16  2.23552E+01  1.12729E-09  2.0E-05
  6.750E-04  3.46979E-11  6.26010E-16  2.23552E+01  1.17065E-09  2.0E-05
  7.000E-04  3.73157E-11  6.26010E-16  2.23552E+01  1.21400E-09  2.0E-05
  7.250E-04  4.00286E-11  6.26010E-16  2.23552E+01  1.25736E-09  2.0E-05
  7.500E-04  4.28368E-11  6.26010E-16  2.23552E+01  1.30072E-09  2.0E-05
  7.750E-04  4.57402E-11  6.26010E-16  2.23552E+01  1.34407E-09  2.0E-05
  8.000E-04  4.87388E-11  6.26010E-16  2.23552E+01  1.38743E-09  2.0E-05
  8.250E-04  5.18325E-11  6.26010E-16  2.23552E+01  1.43079E-09  2.0E-05
  8.500E-04  5.50215E-11  6.26010E-16  2.23552E+01  1.47415E-09  2.0E-05
  8.750E-04  5.83057E-11  6.26010E-16  2.23552E+01  1.51750E-09  2.0E-05
  9.000E-04  6.16850E-11  6.26010E-16  2.23552E+01  1.56086E-09  2.0E-05
  9.250E-04  6.51595E-11  6.26010E-16  2.23552E+01  1.60422E-09  2.0E-05
  9.500E-04  6.87293E-11  6.26010E-16  2.23552E+01  1.64757E-09  2.0E-05
  9.750E-04  7.23943E-11  6.26010E-16  2.23552E+01  1.69093E-09  2.0E-05
  1.000E-03  7.61544E-11  6.26010E-16  2.23552E+01  1.73429E-09  2.0E-05
  1.250E-03  1.18991E-10  6.26010E-16  2.23552E+01  2.16786E-09  2.0E-05
  1.500E-03  1.71347E-10  6.26009E-16  2.23552E+01  2.60143E-09  2.0E-05
  1.750E-03  2.33223E-10  6.26009E-16  2.23552E+01  3.03500E-09  2.0E-05
  2.000E-03  3.04617E-10  6.26009E-16  2.23552E+01  3.46857E-09  2.0E-05
  2.250E-03  3.85531E-10  6.26008E-16  2.23552E+01  3.90213E-09  2.0E-05
  2.500E-03  4.75965E-10  6.26008E-16  2.23551E+01  4.33570E-09  2.0E-05
  2.750E-03  5.75917E-10  6.26007E-16  2.23551E+01  4.76926E-09  2.0E-05
  3.000E-03  6.85389E-10  6.26006E-16  2.23551E+01  5.20282E-09  2.0E-05
  3.250E-03  8.04380E-10  6.26006E-16  2.23551E+01  5.63638E-09  2.0E-05
  3.500E-03  9.32891E-10  6.26005E-16  2.23550E+01  6.06994E-09  2.0E-05
  3.750E-03  1.07092E-09  6.26004E-16  2.23550E+01  6.50350E-09  2.0E-05
  4.000E-03  1.21847E-09  6.26003E-16  2.23550E+01  6.93705E-09  2.0E-05
  4.250E-03  1.37554E-09  6.26002E-16  2.23549E+01  7.37060E-09  2.0E-05
  4.500E-03  1.54213E-09  6.26001E-16  2.23549E+01  7.80415E-09  2.0E-05
  4.750E-03  1.71823E-09  6.26000E-16  2.23549E+01  8.23769E-09  2.0E-05
  5.000E-03  1.90386E-09  6.25999E-16  2.23548E+01  8.67123E-09  2.0E-05
  5.250E-03  2.09900E-09  6.25998E-16  2.23548E+01  9.10477E-09  2.0E-05
  5.500E-03  2.30367E-09  6.25997E-16  2.23547E+01  9.53830E-09  2.0E-05
  5.750E-03  2.51785E-09  6.25995E-16  2.23547E+01  9.97183E-09  2.0E-05
  6.000E-03  2.74156E-09  6.25994E-16  2.23547E+01  1.04054E-08  2.0E-05
  6.250E-03  2.97478E-09  6.25993E-16  2.23546E+01  1.08389E-08  2.0E-05
  6.500E-03  3.21752E-09  6.25991E-16  2.23545E+01  1.12724E-08  2.0E-05
  6.750E-03  3.46978E-09  6.25990E-16  2.23545E+01  1.17059E-08  2.0E-05
  7.000E-03  3.73156E-09  6.25988E-16  2.23544E+01  1.21394E-08  2.0E-05
  7.250E-03  4.00286E-09  6.25986E-16  2.23544E+01  1.25729E-08  2.0E-05
  7.500E-03  4.28368E-09  6.25985E-16  2.23543E+01  1.30064E-08  2.0E-05
  7.750E-03  4.57402E-09  6.25983E-16  2.23543E+01  1.34399E-08  2.0E-05
  8.000E-03  4.87388E-09  6.25981E-16  2.23542E+01  1.38734E-08  2.0E-05
  8.250E-03  5.18326E-09  6.25979E-16  2.23541E+01  1.43069E-08  2.0E-05
  8.500E-03  5.50215E-09  6.25977E-16  2.23541E+01  1.47404E-08  2.0E-05
  8.750E-03  5.83057E-09  6.25975E-16  2.23540E+01  1.51739E-08  2.0E-05
  9.000E-03  6.16850E-09  6.25973E-16  2.23539E+01  1.56073E-08  2.0E-05
  9.250E-03  6.51596E-09  6.25971E-16  2.23538E+01  1.60408E-08  2.0E-05
  9.500E-03  6.87293E-09  6.25969E-16  2.23538E+01  1.64742E-08  2.0E-05
  9.750E-03  7.23942E-09  6.25967E-16  2.23537E+01  1.69077E-08  2.0E-05
  1.000E-02  7.61544E-09  6.25965E-16  2.23536E+01  1.73411E-08  2.0E-05
  1.250E-02  1.18991E-08  6.25939E-16  2.23527E+01  2.16752E-08  2.0E-05
  1.500E-02  1.71347E-08  6.25908E-16  2.23516E+01  2.60083E-08  2.0E-05
  1.750E-02  2.33223E-08  6.25871E-16  2.23502E+01  3.03405E-08  2.0E-05
  2.000E-02  3.04617E-08  6.25828E-16  2.23487E+01  3.46716E-08  2.0E-05
  2.250E-02  3.85531E-08  6.25780E-16  2.23470E+01  3.90013E-08  2.0E-05
  2.500E-02  4.75965E-08  6.25726E-16  2.23451E+01  4.33295E-08  1.9E-05
  2.750E-02  5.75917E-08  6.25666E-16  2.23429E+01  4.76560E-08  1.9E-05
  3.000E-02  6.85389E-08  6.25601E-16  2.23406E+01  5.19807E-08  1.9E-05
  3.250E-02  8.04380E-08  6.25530E-16  2.23381E+01  5.63035E-08  1.9E-05
  3.500E-02  9.32891E-08  6.25453E-16  2.23353E+01  6.06241E-08  1.9E-05
  3.750E-02  1.07092E-07  6.25371E-16  2.23324E+01  6.49424E-08  1.9E-05
  4.000E-02  1.21847E-07  6.25283E-16  2.23293E+01  6.92582E-08  1.9E-05
  4.250E-02  1.37554E-07  6.25190E-16  2.23259E+01  7.35715E-08  1.9E-05
  4.500E-02  1.54213E-07  6.25091E-16  2.23224E+01  7.78819E-08  1.9E-05
  4.750E-02  1.71823E-07  6.24987E-16  2.23187E+01  8.21895E-08  1.8E-05
  5.000E-02  1.90386E-07  6.24877E-16  2.23148E+01  8.64939E-08  1.8E-05
  5.250E-02  2.09900E-07  6.24762E-16  2.23106E+01  9.07952E-08  1.8E-05
  5.500E-02  2.30367E-07  6.24641E-16  2.23063E+01  9.50931E-08  1.8E-05
  5.750E-02  2.51785E-07  6.24515E-16  2.23018E+01  9.93874E-08  1.8E-05
  6.000E-02  2.74156E-07  6.24383E-16  2.22971E+01  1.03678E-07  1.8E-05
  6.250E-02  2.97478E-07  6.24246E-16  2.22922E+01  1.07965E-07  1.7E-05
  6.500E-02  3.21752E-07  6.24104E-16  2.22872E+01  1.12248E-07  1.7E-05
  6.750E-02  3.46978E-07  6.23956E-16  2.22819E+01  1.16527E-07  1.7E-05
  7.000E-02  3.73156E-07  6.23804E-16  2.22764E+01  1.20801E-07  1.7E-05
  7.250E-02  4.00286E-07  6.23645E-16  2.22708E+01  1.25072E-07  1.7E-05
  7.500E-02  4.28368E-07  6.23482E-16  2.22649E+01  1.29338E-07  1.6E-05
  7.750E-02  4.57402E-07  6.23313E-16  2.22589E+01  1.33599E-07  1.6E-05
  8.000E-02  4.87388E-07  6.23140E-16  2.22527E+01  1.37855E-07  1.6E-05
  8.250E-02  5.18325E-07  6.22961E-16  2.22463E+01  1.42107E-07  1.6E-05
  8.500E-02  5.50215E-07  6.22777E-16  2.22398E+01  1.46354E-07  1.5E-05
  8.750E-02  5.83057E-07  6.22588E-16  2.22330E+01  1.50595E-07  1.5E-05
  9.000E-02  6.16850E-07  6.22393E-16  2.22261E+01  1.54832E-07  1.5E-05
  9.250E-02  6.51596E-07  6.22194E-16  2.22190E+01  1.59063E-07  1.5E-05
  9.500E-02  6.87293E-07  6.21990E-16  2.22117E+01  1.63288E-07  1.4E-05
  9.750E-02  7.23942E-07  6.21781E-16  2.22042E+01  1.67508E-07  1.4E-05
  1.000E-01  7.61543E-07  6.21568E-16  2.21966E+01  1.71723E-07  1.4E-05
  1.250E-01  1.18991E-06  6.19172E-16  2.21110E+01  2.13538E-07  1.1E-05
  1.500E-01  1.71347E-06  6.16339E-16  2.20099E+01  2.54703E-07  7.6E-06
  1.750E-01  2.33223E-06  6.13121E-16  2.18949E+01  2.95178E-07  4.2E-06
  2.000E-01  3.04617E-06  6.09573E-16  2.17683E+01  3.34962E-07  9.6E-07
  2.250E-01  3.85531E-06  6.05755E-16  2.16319E+01  3.74095E-07  2.0E-06
  2.500E-01  4.75964E-06  6.01724E-16  2.14879E+01  4.12659E-07  4.5E-06
  2.750E-01  5.75916E-06  5.97537E-16  2.13385E+01  4.50770E-07  6.4E-06
  3.000E-01  6.85388E-06  5.93250E-16  2.11853E+01  4.88573E-07  7.7E-06
  3.250E-01  8.04378E-06  5.88911E-16  2.10304E+01  5.26234E-07  8.2E-06
  3.500E-01  9.32888E-06  5.84565E-16  2.08752E+01  5.63930E-07  8.1E-06
  3.750E-01  1.07092E-05  5.80248E-16  2.07210E+01  6.01837E-07  7.3E-06
  4.000E-01  1.21846E-05  5.75992E-16  2.05690E+01  6.40121E-07  6.0E-06
  4.250E-01  1.37553E-05  5.71819E-16  2.04200E+01  6.78922E-07  4.2E-06
  4.500E-01  1.54212E-05  5.67747E-16  2.02746E+01  7.18355E-07  2.2E-06
  4.750E-01  1.71822E-05  5.63785E-16  2.01331E+01  7.58493E-07  1.6E-07
  5.000E-01  1.90385E-05  5.59937E-16  1.99957E+01  7.99371E-07  1.8E-06
  5.250E-01  2.09899E-05  5.56203E-16  1.98624E+01  8.40980E-07  3.6E-06
  5.500E-01  2.30365E-05  5.52577E-16  1.97329E+01  8.83272E-07  5.0E-06
  5.750E-01  2.51783E-05  5.49051E-16  1.96070E+01  9.26160E-07  6.0E-06
  6.000E-01  2.74153E-05  5.45616E-16  1.94843E+01  9.69534E-07  6.4E-06
  6.250E-01  2.97475E-05  5.42259E-16  1.93644E+01  1.01326E-06  6.3E-06
  6.500E-01  3.21749E-05  5.38970E-16  1.92470E+01  1.05720E-06  5.6E-06
  6.750E-01  3.46974E-05  5.35737E-16  1.91315E+01  1.10121E-06  4.6E-06
  7.000E-01  3.73152E-05  5.32551E-16  1.90177E+01  1.14515E-06  3.2E-06
  7.250E-01  4.00281E-05  5.29402E-16  1.89053E+01  1.18893E-06  1.6E-06
  7.500E-01  4.28362E-05  5.26286E-16  1.87940E+01  1.23245E-06  1.5E-07
  7.750E-01  4.57395E-05  5.23197E-16  1.86837E+01  1.27567E-06  1.8E-06
  8.000E-01  4.87380E-05  5.20133E-16  1.85743E+01  1.31855E-06  3.3E-06
  8.250E-01  5.18317E-05  5.17094E-16  1.84658E+01  1.36113E-06  4.4E-06
  8.500E-01  5.50205E-05  5.14081E-16  1.83582E+01  1.40345E-06  5.2E-06
  8.750E-01  5.83045E-05  5.11095E-16  1.82515E+01  1.44557E-06  5.5E-06
  9.000E-01  6.16838E-05  5.08140E-16  1.81460E+01  1.48760E-06  5.3E-06
  9.250E-01  6.51582E-05  5.05219E-16  1.80417E+01  1.52963E-06  4.8E-06
  9.500E-01  6.87277E-05  5.02336E-16  1.79388E+01  1.57179E-06  3.8E-06
  9.750E-01  7.23925E-05  4.99494E-16  1.78372E+01  1.61416E-06  2.6E-06
  1.000E+00  7.61524E-05  4.96695E-16  1.77373E+01  1.65686E-06  1.1E-06
  1.100E+00  9.21439E-05  4.85950E-16  1.73536E+01  1.83192E-06  4.1E-06
  1.200E+00  1.09658E-04  4.75870E-16  1.69936E+01  2.01334E-06  4.2E-06
  1.300E+00  1.28695E-04  4.66276E-16  1.66510E+01  2.19681E-06  5.4E-07
  1.400E+00  1.49255E-04  4.57018E-16  1.63204E+01  2.37854E-06  4.4E-06
  1.500E+00  1.71338E-04  4.48072E-16  1.60009E+01  2.55950E-06  2.9E-06
  1.600E+00  1.94942E-04  4.39490E-16  1.56945E+01  2.74395E-06  1.9E-06
  1.700E+00  2.20070E-04  4.31287E-16  1.54015E+01  2.93448E-06  4.3E-06
  1.800E+00  2.46720E-04  4.23402E-16  1.51199E+01  3.12937E-06  1.6E-06
  1.900E+00  2.74892E-04  4.15746E-16  1.48465E+01  3.32502E-06  2.9E-06
  2.000E+00  3.04586E-04  4.08276E-16  1.45798E+01  3.52039E-06  3.8E-06
  2.100E+00  3.35803E-04  4.01007E-16  1.43202E+01  3.71812E-06  2.0E-07
  2.200E+00  3.68542E-04  3.93957E-16  1.40685E+01  3.92140E-06  3.5E-06
  2.300E+00  4.02802E-04  3.87112E-16  1.38240E+01  4.13040E-06  3.0E-06
  2.400E+00  4.38585E-04  3.80424E-16  1.35852E+01  4.34242E-06  1.1E-06
  2.500E+00  4.75889E-04  3.73857E-16  1.33507E+01  4.55535E-06  3.8E-06
  2.600E+00  5.14715E-04  3.67407E-16  1.31203E+01  4.77024E-06  2.0E-06
  2.700E+00  5.55063E-04  3.61088E-16  1.28947E+01  4.99003E-06  2.1E-06
  2.800E+00  5.96931E-04  3.54905E-16  1.26739E+01  5.21621E-06  3.6E-06
  2.900E+00  6.40321E-04  3.48835E-16  1.24571E+01  5.44724E-06  7.8E-07
  3.000E+00  6.85233E-04  3.42851E-16  1.22434E+01  5.68071E-06  2.9E-06
  3.100E+00  7.31665E-04  3.36944E-16  1.20325E+01  5.91627E-06  3.1E-06
  3.200E+00  7.79618E-04  3.31123E-16  1.18246E+01  6.15614E-06  4.1E-07
  3.300E+00  8.29092E-04  3.25396E-16  1.16201E+01  6.40248E-06  3.4E-06
  3.400E+00  8.80086E-04  3.19759E-16  1.14188E+01  6.65501E-06  2.3E-06
  3.500E+00  9.32601E-04  3.14192E-16  1.12200E+01  6.91154E-06  1.5E-06
  3.600E+00  9.86636E-04  3.08686E-16  1.10234E+01  7.17074E-06  3.5E-06
  3.700E+00  1.04219E-03  3.03244E-16  1.08290E+01  7.43379E-06  1.3E-06
  3.800E+00  1.09927E-03  2.97875E-16  1.06373E+01  7.70300E-06  2.4E-06
  3.900E+00  1.15786E-03  2.92582E-16  1.04483E+01  7.97914E-06  3.2E-06
  4.000E+00  1.21797E-03  2.87356E-16  1.02617E+01  8.26070E-06  1.7E-07
  4.100E+00  1.27961E-03  2.82186E-16  1.00771E+01  8.54578E-06  3.1E-06
  4.200E+00  1.34276E-03  2.77073E-16  9.89444E+00  8.83450E-06  2.6E-06
  4.300E+00  1.40743E-03  2.72022E-16  9.71410E+00  9.12881E-06  9.4E-07
  4.400E+00  1.47362E-03  2.67041E-16  9.53620E+00  9.43027E-06  3.4E-06
  4.500E+00  1.54133E-03  2.62125E-16  9.36066E+00  9.73820E-06  1.8E-06
  4.600E+00  1.61056E-03  2.57268E-16  9.18720E+00  1.00507E-05  1.9E-06
  4.700E+00  1.68131E-03  2.52465E-16  9.01570E+00  1.03668E-05  3.3E-06
  4.800E+00  1.75357E-03  2.47723E-16  8.84634E+00  1.06879E-05  7.2E-07
  4.900E+00  1.82735E-03  2.43045E-16  8.67931E+00  1.10159E-05  2.7E-06
  5.000E+00  1.90265E-03  2.38435E-16  8.51466E+00  1.13509E-05  2.9E-06
  5.100E+00  1.97947E-03  2.33886E-16  8.35220E+00  1.16915E-05  3.8E-07
  5.200E+00  2.05780E-03  2.29394E-16  8.19180E+00  1.20360E-05  3.2E-06
  5.300E+00  2.13765E-03  2.24961E-16  8.03349E+00  1.23850E-05  2.2E-06
  5.400E+00  2.21902E-03  2.20591E-16  7.87746E+00  1.27401E-05  1.4E-06
  5.500E+00  2.30190E-03  2.16289E-16  7.72381E+00  1.31025E-05  3.4E-06
  5.600E+00  2.38630E-03  2.12050E-16  7.57246E+00  1.34711E-05  1.3E-06
  5.700E+00  2.47222E-03  2.07872E-16  7.42325E+00  1.38442E-05  2.4E-06
  5.800E+00  2.55965E-03  2.03754E-16  7.27617E+00  1.42213E-05  3.1E-06
  5.900E+00  2.64859E-03  1.99698E-16  7.13133E+00  1.46037E-05  1.7E-07
  6.000E+00  2.73905E-03  1.95707E-16  6.98884E+00  1.49930E-05  3.0E-06
  6.100E+00  2.83103E-03  1.91783E-16  6.84869E+00  1.53891E-05  2.6E-06
  6.200E+00  2.92452E-03  1.87921E-16  6.71077E+00  1.57902E-05  9.3E-07
  6.300E+00  3.01952E-03  1.84119E-16  6.57500E+00  1.61950E-05  3.4E-06
  6.400E+00  3.11604E-03  1.80378E-16  6.44141E+00  1.66043E-05  1.8E-06
  6.500E+00  3.21407E-03  1.76701E-16  6.31010E+00  1.70197E-05  1.9E-06
  6.600E+00  3.31362E-03  1.73089E-16  6.18112E+00  1.74420E-05  3.3E-06
  6.700E+00  3.41468E-03  1.69540E-16  6.05438E+00  1.78697E-05  7.4E-07
  6.800E+00  3.51725E-03  1.66051E-16  5.92977E+00  1.83013E-05  2.8E-06
  6.900E+00  3.62133E-03  1.62621E-16  5.80729E+00  1.87365E-05  3.0E-06
  7.000E+00  3.72692E-03  1.59252E-16  5.68700E+00  1.91769E-05  3.9E-07
  7.100E+00  3.83403E-03  1.55947E-16  5.56896E+00  1.96236E-05  3.3E-06
  7.200E+00  3.94265E-03  1.52703E-16  5.45311E+00  2.00762E-05  2.3E-06
  7.300E+00  4.05278E-03  1.49518E-16  5.33938E+00  2.05329E-05  1.5E-06
  7.400E+00  4.16442E-03  1.46390E-16  5.22770E+00  2.09926E-05  3.5E-06
  7.500E+00  4.27757E-03  1.43321E-16  5.11809E+00  2.14563E-05  1.3E-06
  7.600E+00  4.39223E-03  1.40311E-16  5.01061E+00  2.19256E-05  2.5E-06
  7.700E+00  4.50840E-03  1.37361E-16  4.90524E+00  2.24009E-05  3.3E-06
  7.800E+00  4.62608E-03  1.34467E-16  4.80192E+00  2.28805E-05  1.9E-07
  7.900E+00  4.74527E-03  1.31629E-16  4.70056E+00  2.33629E-05  3.2E-06
  8.000E+00  4.86597E-03  1.28845E-16  4.60114E+00  2.38483E-05  2.8E-06
  8.100E+00  4.98817E-03  1.26117E-16  4.50371E+00  2.43381E-05  9.8E-07
  8.200E+00  5.11188E-03  1.23444E-16  4.40827E+00  2.48335E-05  3.6E-06
  8.300E+00  5.23711E-03  1.20826E-16  4.31476E+00  2.53337E-05  1.9E-06
  8.400E+00  5.36383E-03  1.18259E-16  4.22312E+00  2.58367E-05  2.1E-06
  8.500E+00  5.49207E-03  1.15744E-16  4.13328E+00  2.63417E-05  3.6E-06
  8.600E+00  5.62181E-03  1.13279E-16  4.04527E+00  2.68500E-05  8.0E-07
  8.700E+00  5.75306E-03  1.10866E-16  3.95911E+00  2.73632E-05  3.0E-06
  8.800E+00  5.88581E-03  1.08504E-16  3.87475E+00  2.78812E-05  3.2E-06
  8.900E+00  6.02007E-03  1.06191E-16  3.79214E+00  2.84023E-05  4.1E-07
  9.000E+00  6.15583E-03  1.03924E-16  3.71121E+00  2.89250E-05  3.6E-06
  9.100E+00  6.29310E-03  1.01705E-16  3.63194E+00  2.94497E-05  2.5E-06
  9.200E+00  6.43187E-03  9.95323E-17  3.55436E+00  2.99782E-05  1.6E-06
  9.300E+00  6.57214E-03  9.74066E-17  3.47845E+00  3.05115E-05  3.8E-06
  9.400E+00  6.71392E-03  9.53262E-17  3.40416E+00  3.10481E-05  1.4E-06
  9.500E+00  6.85720E-03  9.32893E-17  3.33142E+00  3.15863E-05  2.7E-06
  9.600E+00  7.00198E-03  9.12950E-17  3.26020E+00  3.21255E-05  3.6E-06
  9.700E+00  7.14827E-03  8.93432E-17  3.19050E+00  3.26672E-05  2.2E-07
  9.800E+00  7.29605E-03  8.74341E-17  3.12233E+00  3.32130E-05  3.5E-06
  9.900E+00  7.44534E-03  8.55666E-17  3.05564E+00  3.37626E-05  3.0E-06
  1.000E+01  7.59612E-03  8.37391E-17  2.99038E+00  3.43139E-05  1.1E-06
  1.025E+01  7.97965E-03  7.93390E-17  2.83325E+00  3.56958E-05  1.0E-07
  1.050E+01  8.37255E-03  7.51761E-17  2.68459E+00  3.70959E-05  9.0E-07
  1.075E+01  8.77480E-03  7.12348E-17  2.54384E+00  3.85011E-05  1.9E-06
  1.100E+01  9.18641E-03  6.75073E-17  2.41073E+00  3.99198E-05  2.7E-06
  1.125E+01  9.60736E-03  6.39806E-17  2.28479E+00  4.13424E-05  3.5E-06
  1.150E+01  1.00376E-02  6.06458E-17  2.16570E+00  4.27723E-05  4.0E-06
  1.175E+01  1.04773E-02  5.74928E-17  2.05311E+00  4.42052E-05  4.3E-06
  1.200E+01  1.09262E-02  5.45118E-17  1.94665E+00  4.56377E-05  4.3E-06
  1.225E+01  1.13844E-02  5.16949E-17  1.84606E+00  4.70722E-05  4.1E-06
  1.250E+01  1.18520E-02  4.90320E-17  1.75096E+00  4.84978E-05  3.6E-06
  1.275E+01  1.23288E-02  4.65170E-17  1.66115E+00  4.99230E-05  2.9E-06
  1.300E+01  1.28150E-02  4.41400E-17  1.57627E+00  5.13308E-05  2.0E-06
  1.325E+01  1.33104E-02  4.18959E-17  1.49613E+00  5.27335E-05  8.7E-07
  1.350E+01  1.38150E-02  3.97757E-17  1.42041E+00  5.41108E-05  3.1E-07
  1.375E+01  1.43290E-02  3.77744E-17  1.34895E+00  5.54756E-05  1.5E-06
