 #
 # Subroutine ELSEPA. Elastic scattering of electrons and positrons
 #                    by neutral atoms and positive ions
 #
 # Projectile: electron
 # Kinetic energy = 1.80000E+04 eV = 6.61488E+02 a.u.
 #
 # Element:  O,  Z =   8,  atomic weight = 1.59994E+01 g/mol
 #
 # Nuclear model: Fermi distribution
 #                Average radius = 2.69620E-13 cm
 #                Skin thickness = 5.46000E-14 cm
 #
 # Number of electrons =  8
 #
 # Electron density: Read from file z_008.den   
 #                   Number of data points =  681
 #                   Volume integral = 8.00000E+00
 #
 # Furness-McCarthy exchange potential
 #
 # LDA absorption potential (only electron-hole excitations):
 #                           Delta = 1.97000E+00 eV
 #                            Aabs = 2.00000E+00
 #
 # Total elastic cross section = 4.01725E-18 cm**2 = 1.43459E-01 a0**2
 # 1st transport cross section = 3.76677E-20 cm**2 = 1.34514E-03 a0**2
 # 2nd transport cross section = 9.38227E-20 cm**2 = 3.35047E-03 a0**2
 #
 #    Absorption cross section = 2.76676E-18 cm**2 = 9.88029E-02 a0**2
 #   Grand total cross section = 6.78474E-18 cm**2 = 2.42287E-01 a0**2
 #
 #
 # Differential cross section:                       MU=(1-COS(THETA))/2
 #
 #  THETA        MU          DCS          DCS        Sherman      error
 #  (deg)                 (cm**2/sr)   (a0**2/sr)    function
 #----------------------------------------------------------------------
  0.000E+00  0.00000E+00  4.21256E-16  1.50433E+01  0.00000E+00  1.0E-07
  1.000E-04  7.61557E-13  4.21256E-16  1.50433E+01  5.87973E-11  1.0E-07
  1.250E-04  1.18994E-12  4.21256E-16  1.50433E+01  7.34967E-11  1.0E-07
  1.500E-04  1.71346E-12  4.21256E-16  1.50433E+01  8.81960E-11  1.0E-07
  1.750E-04  2.33225E-12  4.21256E-16  1.50433E+01  1.02895E-10  1.0E-07
  2.000E-04  3.04617E-12  4.21256E-16  1.50433E+01  1.17595E-10  1.0E-07
  2.250E-04  3.85530E-12  4.21256E-16  1.50433E+01  1.32294E-10  1.0E-07
  2.500E-04  4.75964E-12  4.21256E-16  1.50433E+01  1.46993E-10  1.0E-07
  2.750E-04  5.75917E-12  4.21256E-16  1.50433E+01  1.61693E-10  1.0E-07
  3.000E-04  6.85391E-12  4.21256E-16  1.50433E+01  1.76392E-10  1.0E-07
  3.250E-04  8.04379E-12  4.21256E-16  1.50433E+01  1.91091E-10  1.0E-07
  3.500E-04  9.32893E-12  4.21256E-16  1.50433E+01  2.05791E-10  1.0E-07
  3.750E-04  1.07092E-11  4.21256E-16  1.50433E+01  2.20490E-10  1.0E-07
  4.000E-04  1.21847E-11  4.21256E-16  1.50433E+01  2.35189E-10  1.0E-07
  4.250E-04  1.37554E-11  4.21256E-16  1.50433E+01  2.49889E-10  1.0E-07
  4.500E-04  1.54213E-11  4.21256E-16  1.50433E+01  2.64588E-10  1.0E-07
  4.750E-04  1.71823E-11  4.21256E-16  1.50433E+01  2.79287E-10  1.0E-07
  5.000E-04  1.90386E-11  4.21256E-16  1.50433E+01  2.93987E-10  1.0E-07
  5.250E-04  2.09900E-11  4.21256E-16  1.50433E+01  3.08686E-10  1.0E-07
  5.500E-04  2.30367E-11  4.21256E-16  1.50433E+01  3.23385E-10  1.0E-07
  5.750E-04  2.51785E-11  4.21256E-16  1.50433E+01  3.38085E-10  1.0E-07
  6.000E-04  2.74156E-11  4.21256E-16  1.50433E+01  3.52784E-10  1.0E-07
  6.250E-04  2.97478E-11  4.21256E-16  1.50433E+01  3.67483E-10  1.0E-07
  6.500E-04  3.21752E-11  4.21256E-16  1.50433E+01  3.82183E-10  1.0E-07
  6.750E-04  3.46979E-11  4.21256E-16  1.50433E+01  3.96882E-10  1.0E-07
  7.000E-04  3.73157E-11  4.21256E-16  1.50433E+01  4.11581E-10  1.0E-07
  7.250E-04  4.00286E-11  4.21256E-16  1.50433E+01  4.26281E-10  1.0E-07
  7.500E-04  4.28368E-11  4.21256E-16  1.50433E+01  4.40980E-10  1.0E-07
  7.750E-04  4.57402E-11  4.21256E-16  1.50433E+01  4.55679E-10  1.0E-07
  8.000E-04  4.87388E-11  4.21256E-16  1.50433E+01  4.70379E-10  1.0E-07
  8.250E-04  5.18325E-11  4.21256E-16  1.50433E+01  4.85078E-10  1.0E-07
  8.500E-04  5.50215E-11  4.21256E-16  1.50433E+01  4.99777E-10  1.0E-07
  8.750E-04  5.83057E-11  4.21256E-16  1.50433E+01  5.14477E-10  1.0E-07
  9.000E-04  6.16850E-11  4.21256E-16  1.50433E+01  5.29176E-10  1.0E-07
  9.250E-04  6.51595E-11  4.21256E-16  1.50433E+01  5.43875E-10  1.0E-07
  9.500E-04  6.87293E-11  4.21256E-16  1.50433E+01  5.58575E-10  1.0E-07
  9.750E-04  7.23943E-11  4.21256E-16  1.50433E+01  5.73274E-10  1.0E-07
  1.000E-03  7.61544E-11  4.21256E-16  1.50433E+01  5.87973E-10  1.0E-07
  1.250E-03  1.18991E-10  4.21256E-16  1.50433E+01  7.34967E-10  1.0E-07
  1.500E-03  1.71347E-10  4.21256E-16  1.50433E+01  8.81960E-10  1.0E-07
  1.750E-03  2.33223E-10  4.21256E-16  1.50433E+01  1.02895E-09  1.0E-07
  2.000E-03  3.04617E-10  4.21256E-16  1.50433E+01  1.17595E-09  1.0E-07
  2.250E-03  3.85531E-10  4.21256E-16  1.50433E+01  1.32294E-09  1.0E-07
  2.500E-03  4.75965E-10  4.21256E-16  1.50433E+01  1.46993E-09  1.0E-07
  2.750E-03  5.75917E-10  4.21255E-16  1.50433E+01  1.61693E-09  1.0E-07
  3.000E-03  6.85389E-10  4.21255E-16  1.50433E+01  1.76392E-09  1.0E-07
  3.250E-03  8.04380E-10  4.21255E-16  1.50433E+01  1.91092E-09  1.0E-07
  3.500E-03  9.32891E-10  4.21255E-16  1.50433E+01  2.05791E-09  1.0E-07
  3.750E-03  1.07092E-09  4.21255E-16  1.50433E+01  2.20490E-09  1.0E-07
  4.000E-03  1.21847E-09  4.21255E-16  1.50433E+01  2.35190E-09  1.0E-07
  4.250E-03  1.37554E-09  4.21255E-16  1.50433E+01  2.49889E-09  1.0E-07
  4.500E-03  1.54213E-09  4.21254E-16  1.50433E+01  2.64589E-09  1.0E-07
  4.750E-03  1.71823E-09  4.21254E-16  1.50433E+01  2.79288E-09  1.0E-07
  5.000E-03  1.90386E-09  4.21254E-16  1.50433E+01  2.93988E-09  1.0E-07
  5.250E-03  2.09900E-09  4.21254E-16  1.50432E+01  3.08687E-09  1.0E-07
  5.500E-03  2.30367E-09  4.21254E-16  1.50432E+01  3.23386E-09  1.0E-07
  5.750E-03  2.51785E-09  4.21253E-16  1.50432E+01  3.38086E-09  1.0E-07
  6.000E-03  2.74156E-09  4.21253E-16  1.50432E+01  3.52785E-09  1.0E-07
  6.250E-03  2.97478E-09  4.21253E-16  1.50432E+01  3.67485E-09  1.0E-07
  6.500E-03  3.21752E-09  4.21253E-16  1.50432E+01  3.82184E-09  1.0E-07
  6.750E-03  3.46978E-09  4.21252E-16  1.50432E+01  3.96884E-09  1.0E-07
  7.000E-03  3.73156E-09  4.21252E-16  1.50432E+01  4.11584E-09  1.0E-07
  7.250E-03  4.00286E-09  4.21252E-16  1.50432E+01  4.26283E-09  1.0E-07
  7.500E-03  4.28368E-09  4.21252E-16  1.50432E+01  4.40983E-09  1.0E-07
  7.750E-03  4.57402E-09  4.21251E-16  1.50432E+01  4.55682E-09  1.0E-07
  8.000E-03  4.87388E-09  4.21251E-16  1.50431E+01  4.70382E-09  1.0E-07
  8.250E-03  5.18326E-09  4.21251E-16  1.50431E+01  4.85082E-09  1.0E-07
  8.500E-03  5.50215E-09  4.21250E-16  1.50431E+01  4.99781E-09  1.0E-07
  8.750E-03  5.83057E-09  4.21250E-16  1.50431E+01  5.14481E-09  1.0E-07
  9.000E-03  6.16850E-09  4.21250E-16  1.50431E+01  5.29181E-09  1.0E-07
  9.250E-03  6.51596E-09  4.21249E-16  1.50431E+01  5.43881E-09  1.0E-07
  9.500E-03  6.87293E-09  4.21249E-16  1.50431E+01  5.58580E-09  1.0E-07
  9.750E-03  7.23942E-09  4.21249E-16  1.50431E+01  5.73280E-09  1.0E-07
  1.000E-02  7.61544E-09  4.21248E-16  1.50430E+01  5.87980E-09  1.0E-07
  1.250E-02  1.18991E-08  4.21244E-16  1.50429E+01  7.34979E-09  1.0E-07
  1.500E-02  1.71347E-08  4.21238E-16  1.50427E+01  8.81982E-09  1.0E-07
  1.750E-02  2.33223E-08  4.21232E-16  1.50425E+01  1.02899E-08  1.0E-07
  2.000E-02  3.04617E-08  4.21225E-16  1.50422E+01  1.17600E-08  1.0E-07
  2.250E-02  3.85531E-08  4.21216E-16  1.50419E+01  1.32301E-08  1.0E-07
  2.500E-02  4.75965E-08  4.21207E-16  1.50416E+01  1.47003E-08  1.0E-07
  2.750E-02  5.75917E-08  4.21196E-16  1.50412E+01  1.61706E-08  1.0E-07
  3.000E-02  6.85389E-08  4.21185E-16  1.50408E+01  1.76410E-08  1.0E-07
  3.250E-02  8.04380E-08  4.21173E-16  1.50404E+01  1.91114E-08  1.0E-07
  3.500E-02  9.32891E-08  4.21160E-16  1.50399E+01  2.05818E-08  1.0E-07
  3.750E-02  1.07092E-07  4.21145E-16  1.50394E+01  2.20524E-08  1.0E-07
  4.000E-02  1.21847E-07  4.21130E-16  1.50388E+01  2.35231E-08  1.0E-07
  4.250E-02  1.37554E-07  4.21114E-16  1.50382E+01  2.49938E-08  1.0E-07
  4.500E-02  1.54213E-07  4.21097E-16  1.50376E+01  2.64647E-08  1.0E-07
  4.750E-02  1.71823E-07  4.21078E-16  1.50370E+01  2.79357E-08  1.0E-07
  5.000E-02  1.90386E-07  4.21059E-16  1.50363E+01  2.94068E-08  1.0E-07
  5.250E-02  2.09900E-07  4.21039E-16  1.50356E+01  3.08780E-08  1.0E-07
  5.500E-02  2.30367E-07  4.21018E-16  1.50348E+01  3.23493E-08  1.0E-07
  5.750E-02  2.51785E-07  4.20996E-16  1.50340E+01  3.38208E-08  1.0E-07
  6.000E-02  2.74156E-07  4.20973E-16  1.50332E+01  3.52924E-08  1.0E-07
  6.250E-02  2.97478E-07  4.20949E-16  1.50323E+01  3.67642E-08  1.0E-07
  6.500E-02  3.21752E-07  4.20923E-16  1.50315E+01  3.82361E-08  1.0E-07
  6.750E-02  3.46978E-07  4.20897E-16  1.50305E+01  3.97081E-08  1.0E-07
  7.000E-02  3.73156E-07  4.20870E-16  1.50296E+01  4.11804E-08  1.0E-07
  7.250E-02  4.00286E-07  4.20842E-16  1.50286E+01  4.26528E-08  1.0E-07
  7.500E-02  4.28368E-07  4.20813E-16  1.50275E+01  4.41253E-08  1.0E-07
  7.750E-02  4.57402E-07  4.20783E-16  1.50264E+01  4.55981E-08  1.0E-07
  8.000E-02  4.87388E-07  4.20752E-16  1.50253E+01  4.70711E-08  1.0E-07
  8.250E-02  5.18325E-07  4.20721E-16  1.50242E+01  4.85442E-08  1.0E-07
  8.500E-02  5.50215E-07  4.20688E-16  1.50230E+01  5.00175E-08  1.0E-07
  8.750E-02  5.83057E-07  4.20654E-16  1.50218E+01  5.14911E-08  1.0E-07
  9.000E-02  6.16850E-07  4.20619E-16  1.50206E+01  5.29648E-08  1.0E-07
  9.250E-02  6.51596E-07  4.20583E-16  1.50193E+01  5.44388E-08  1.0E-07
  9.500E-02  6.87293E-07  4.20546E-16  1.50180E+01  5.59130E-08  1.0E-07
  9.750E-02  7.23942E-07  4.20508E-16  1.50166E+01  5.73875E-08  1.0E-07
  1.000E-01  7.61543E-07  4.20470E-16  1.50152E+01  5.88621E-08  1.0E-07
  1.250E-01  1.18991E-06  4.20028E-16  1.49995E+01  7.36232E-08  1.0E-07
  1.500E-01  1.71347E-06  4.19490E-16  1.49802E+01  8.84145E-08  1.0E-07
  1.750E-01  2.33223E-06  4.18854E-16  1.49576E+01  1.03242E-07  1.0E-07
  2.000E-01  3.04617E-06  4.18123E-16  1.49315E+01  1.18112E-07  1.0E-07
  2.250E-01  3.85531E-06  4.17297E-16  1.49019E+01  1.33030E-07  1.0E-07
  2.500E-01  4.75964E-06  4.16376E-16  1.48691E+01  1.48003E-07  1.0E-07
  2.750E-01  5.75916E-06  4.15362E-16  1.48329E+01  1.63036E-07  1.0E-07
  3.000E-01  6.85388E-06  4.14256E-16  1.47933E+01  1.78134E-07  1.0E-07
  3.250E-01  8.04378E-06  4.13058E-16  1.47506E+01  1.93304E-07  1.0E-07
  3.500E-01  9.32888E-06  4.11770E-16  1.47046E+01  2.08552E-07  1.0E-07
  3.750E-01  1.07092E-05  4.10393E-16  1.46554E+01  2.23883E-07  1.0E-07
  4.000E-01  1.21846E-05  4.08929E-16  1.46031E+01  2.39304E-07  1.0E-07
  4.250E-01  1.37553E-05  4.07379E-16  1.45478E+01  2.54818E-07  1.0E-07
  4.500E-01  1.54212E-05  4.05744E-16  1.44894E+01  2.70433E-07  1.0E-07
  4.750E-01  1.71822E-05  4.04027E-16  1.44281E+01  2.86154E-07  1.0E-07
  5.000E-01  1.90385E-05  4.02228E-16  1.43638E+01  3.01986E-07  1.0E-07
  5.250E-01  2.09899E-05  4.00349E-16  1.42967E+01  3.17934E-07  1.0E-07
  5.500E-01  2.30365E-05  3.98393E-16  1.42269E+01  3.34004E-07  1.0E-07
  5.750E-01  2.51783E-05  3.96361E-16  1.41543E+01  3.50201E-07  1.0E-07
  6.000E-01  2.74153E-05  3.94255E-16  1.40791E+01  3.66531E-07  1.0E-07
  6.250E-01  2.97475E-05  3.92077E-16  1.40013E+01  3.82998E-07  1.0E-07
  6.500E-01  3.21749E-05  3.89829E-16  1.39210E+01  3.99608E-07  1.0E-07
  6.750E-01  3.46974E-05  3.87513E-16  1.38383E+01  4.16366E-07  1.0E-07
  7.000E-01  3.73152E-05  3.85130E-16  1.37533E+01  4.33276E-07  1.0E-07
  7.250E-01  4.00281E-05  3.82684E-16  1.36659E+01  4.50344E-07  1.0E-07
  7.500E-01  4.28362E-05  3.80176E-16  1.35763E+01  4.67574E-07  1.0E-07
  7.750E-01  4.57395E-05  3.77609E-16  1.34846E+01  4.84971E-07  1.0E-07
  8.000E-01  4.87380E-05  3.74984E-16  1.33909E+01  5.02540E-07  1.0E-07
  8.250E-01  5.18317E-05  3.72303E-16  1.32952E+01  5.20285E-07  1.0E-07
  8.500E-01  5.50205E-05  3.69570E-16  1.31976E+01  5.38211E-07  1.0E-07
  8.750E-01  5.83045E-05  3.66786E-16  1.30982E+01  5.56322E-07  1.0E-07
  9.000E-01  6.16838E-05  3.63953E-16  1.29970E+01  5.74623E-07  1.0E-07
  9.250E-01  6.51582E-05  3.61074E-16  1.28942E+01  5.93118E-07  1.0E-07
  9.500E-01  6.87277E-05  3.58150E-16  1.27898E+01  6.11811E-07  1.0E-07
  9.750E-01  7.23925E-05  3.55185E-16  1.26839E+01  6.30707E-07  1.0E-07
  1.000E+00  7.61524E-05  3.52181E-16  1.25766E+01  6.49809E-07  1.0E-07
  1.100E+00  9.21439E-05  3.39809E-16  1.21348E+01  7.28360E-07  1.0E-07
  1.200E+00  1.09658E-04  3.26979E-16  1.16766E+01  8.10515E-07  1.0E-07
  1.300E+00  1.28695E-04  3.13824E-16  1.12069E+01  8.96492E-07  1.0E-07
  1.400E+00  1.49255E-04  3.00470E-16  1.07300E+01  9.86478E-07  1.0E-07
  1.500E+00  1.71338E-04  2.87034E-16  1.02502E+01  1.08063E-06  1.0E-07
  1.600E+00  1.94942E-04  2.73622E-16  9.77122E+00  1.17908E-06  1.0E-07
  1.700E+00  2.20070E-04  2.60327E-16  9.29646E+00  1.28191E-06  1.0E-07
  1.800E+00  2.46720E-04  2.47233E-16  8.82885E+00  1.38918E-06  1.0E-07
  1.900E+00  2.74892E-04  2.34409E-16  8.37089E+00  1.50092E-06  1.0E-07
  2.000E+00  3.04586E-04  2.21914E-16  7.92468E+00  1.61712E-06  1.0E-07
  2.100E+00  3.35803E-04  2.09796E-16  7.49194E+00  1.73773E-06  1.0E-07
  2.200E+00  3.68542E-04  1.98093E-16  7.07402E+00  1.86268E-06  1.0E-07
  2.300E+00  4.02802E-04  1.86833E-16  6.67193E+00  1.99188E-06  1.0E-07
  2.400E+00  4.38585E-04  1.76037E-16  6.28640E+00  2.12519E-06  1.0E-07
  2.500E+00  4.75889E-04  1.65718E-16  5.91789E+00  2.26247E-06  1.0E-07
  2.600E+00  5.14715E-04  1.55881E-16  5.56662E+00  2.40354E-06  1.0E-07
  2.700E+00  5.55063E-04  1.46528E-16  5.23262E+00  2.54818E-06  1.0E-07
  2.800E+00  5.96931E-04  1.37655E-16  4.91576E+00  2.69613E-06  1.0E-07
  2.900E+00  6.40321E-04  1.29255E-16  4.61577E+00  2.84713E-06  1.0E-07
  3.000E+00  6.85233E-04  1.21316E-16  4.33227E+00  3.00086E-06  1.0E-07
  3.100E+00  7.31665E-04  1.13825E-16  4.06478E+00  3.15695E-06  1.0E-07
  3.200E+00  7.79618E-04  1.06768E-16  3.81277E+00  3.31504E-06  1.0E-07
  3.300E+00  8.29092E-04  1.00128E-16  3.57564E+00  3.47469E-06  1.0E-07
  3.400E+00  8.80086E-04  9.38874E-17  3.35278E+00  3.63546E-06  1.0E-07
  3.500E+00  9.32601E-04  8.80279E-17  3.14353E+00  3.79687E-06  1.0E-07
  3.600E+00  9.86636E-04  8.25314E-17  2.94725E+00  3.95842E-06  1.0E-07
  3.700E+00  1.04219E-03  7.73794E-17  2.76327E+00  4.11958E-06  1.0E-07
  3.800E+00  1.09927E-03  7.25537E-17  2.59094E+00  4.27982E-06  1.0E-07
  3.900E+00  1.15786E-03  6.80363E-17  2.42962E+00  4.43855E-06  1.0E-07
  4.000E+00  1.21797E-03  6.38097E-17  2.27869E+00  4.59521E-06  1.0E-07
  4.100E+00  1.27961E-03  5.98569E-17  2.13753E+00  4.74920E-06  1.0E-07
  4.200E+00  1.34276E-03  5.61614E-17  2.00556E+00  4.89994E-06  1.0E-07
  4.300E+00  1.40743E-03  5.27076E-17  1.88222E+00  5.04685E-06  1.0E-07
  4.400E+00  1.47362E-03  4.94804E-17  1.76698E+00  5.18936E-06  1.0E-07
  4.500E+00  1.54133E-03  4.64655E-17  1.65931E+00  5.32695E-06  1.0E-07
  4.600E+00  1.61056E-03  4.36493E-17  1.55875E+00  5.45911E-06  1.0E-07
  4.700E+00  1.68131E-03  4.10188E-17  1.46481E+00  5.58538E-06  1.0E-07
  4.800E+00  1.75357E-03  3.85619E-17  1.37707E+00  5.70536E-06  1.0E-07
  4.900E+00  1.82735E-03  3.62669E-17  1.29512E+00  5.81865E-06  1.0E-07
  5.000E+00  1.90265E-03  3.41232E-17  1.21856E+00  5.92491E-06  1.0E-07
  5.100E+00  1.97947E-03  3.21204E-17  1.14704E+00  6.02384E-06  1.0E-07
  5.200E+00  2.05780E-03  3.02490E-17  1.08021E+00  6.11514E-06  1.0E-07
  5.300E+00  2.13765E-03  2.85001E-17  1.01776E+00  6.19851E-06  1.0E-07
  5.400E+00  2.21902E-03  2.68652E-17  9.59374E-01  6.27366E-06  1.0E-07
  5.500E+00  2.30190E-03  2.53366E-17  9.04786E-01  6.34027E-06  1.0E-07
  5.600E+00  2.38630E-03  2.39069E-17  8.53729E-01  6.39799E-06  1.0E-07
  5.700E+00  2.47222E-03  2.25692E-17  8.05961E-01  6.44643E-06  1.0E-07
  5.800E+00  2.55965E-03  2.13173E-17  7.61255E-01  6.48515E-06  1.0E-07
  5.900E+00  2.64859E-03  2.01452E-17  7.19399E-01  6.51365E-06  1.0E-07
  6.000E+00  2.73905E-03  1.90475E-17  6.80198E-01  6.53136E-06  1.0E-07
  6.100E+00  2.83103E-03  1.80189E-17  6.43468E-01  6.53763E-06  1.0E-07
  6.200E+00  2.92452E-03  1.70548E-17  6.09040E-01  6.53173E-06  1.0E-07
  6.300E+00  3.01952E-03  1.61508E-17  5.76756E-01  6.51285E-06  1.0E-07
  6.400E+00  3.11604E-03  1.53027E-17  5.46471E-01  6.48013E-06  1.0E-07
  6.500E+00  3.21407E-03  1.45068E-17  5.18049E-01  6.43264E-06  1.0E-07
  6.600E+00  3.31362E-03  1.37596E-17  4.91363E-01  6.36942E-06  1.0E-07
  6.700E+00  3.41468E-03  1.30576E-17  4.66296E-01  6.28949E-06  1.0E-07
  6.800E+00  3.51725E-03  1.23980E-17  4.42741E-01  6.19192E-06  1.0E-07
  6.900E+00  3.62133E-03  1.17779E-17  4.20597E-01  6.07579E-06  1.0E-07
  7.000E+00  3.72692E-03  1.11947E-17  3.99769E-01  5.94030E-06  1.0E-07
  7.100E+00  3.83403E-03  1.06458E-17  3.80170E-01  5.78473E-06  1.0E-07
  7.200E+00  3.94265E-03  1.01292E-17  3.61720E-01  5.60848E-06  1.0E-07
  7.300E+00  4.05278E-03  9.64259E-18  3.44343E-01  5.41111E-06  1.0E-07
  7.400E+00  4.16442E-03  9.18408E-18  3.27970E-01  5.19232E-06  1.0E-07
  7.500E+00  4.27757E-03  8.75185E-18  3.12534E-01  4.95195E-06  1.0E-07
  7.600E+00  4.39223E-03  8.34419E-18  2.97976E-01  4.68999E-06  1.0E-07
  7.700E+00  4.50840E-03  7.95952E-18  2.84240E-01  4.40657E-06  1.0E-07
  7.800E+00  4.62608E-03  7.59637E-18  2.71271E-01  4.10193E-06  1.0E-07
  7.900E+00  4.74527E-03  7.25338E-18  2.59023E-01  3.77642E-06  1.0E-07
  8.000E+00  4.86597E-03  6.92925E-18  2.47448E-01  3.43047E-06  1.0E-07
  8.100E+00  4.98817E-03  6.62281E-18  2.36505E-01  3.06456E-06  1.0E-07
  8.200E+00  5.11188E-03  6.33294E-18  2.26153E-01  2.67917E-06  1.0E-07
  8.300E+00  5.23711E-03  6.05862E-18  2.16357E-01  0.00000E+00  1.0E-07
  8.400E+00  5.36383E-03  5.79888E-18  2.07082E-01  0.00000E+00  1.0E-07
  8.500E+00  5.49207E-03  5.55282E-18  1.98295E-01  0.00000E+00  1.0E-07
  8.600E+00  5.62181E-03  5.31961E-18  1.89967E-01  0.00000E+00  1.0E-07
  8.700E+00  5.75306E-03  5.09848E-18  1.82070E-01  0.00000E+00  1.0E-07
  8.800E+00  5.88581E-03  4.88869E-18  1.74578E-01  0.00000E+00  1.0E-07
  8.900E+00  6.02007E-03  4.68957E-18  1.67467E-01  0.00000E+00  1.0E-07
  9.000E+00  6.15583E-03  4.50048E-18  1.60715E-01  0.00000E+00  1.0E-07
  9.100E+00  6.29310E-03  4.32085E-18  1.54300E-01  0.00000E+00  1.0E-07
  9.200E+00  6.43187E-03  4.15012E-18  1.48203E-01  0.00000E+00  1.0E-07
  9.300E+00  6.57214E-03  3.98777E-18  1.42406E-01  0.00000E+00  1.0E-07
  9.400E+00  6.71392E-03  3.83333E-18  1.36891E-01 -3.41404E-06  1.0E-07
  9.500E+00  6.85720E-03  3.68635E-18  1.31642E-01 -4.05662E-06  1.0E-07
  9.600E+00  7.00198E-03  3.54640E-18  1.26644E-01 -4.72388E-06  1.0E-07
  9.700E+00  7.14827E-03  3.41310E-18  1.21884E-01 -5.41674E-06  1.0E-07
  9.800E+00  7.29605E-03  3.28607E-18  1.17348E-01 -6.13601E-06  1.0E-07
  9.900E+00  7.44534E-03  3.16497E-18  1.13023E-01 -6.88237E-06  1.0E-07
  1.000E+01  7.59612E-03  3.04947E-18  1.08899E-01 -7.65631E-06  1.0E-07
  1.025E+01  7.97965E-03  2.78329E-18  9.93931E-02 -9.71311E-06  1.0E-07
  1.050E+01  8.37255E-03  2.54600E-18  9.09192E-02 -1.19415E-05  1.0E-07
  1.075E+01  8.77480E-03  2.33391E-18  8.33456E-02 -1.43307E-05  1.0E-07
  1.100E+01  9.18641E-03  2.14388E-18  7.65595E-02 -1.68644E-05  1.0E-07
  1.125E+01  9.60736E-03  1.97319E-18  7.04639E-02 -1.95261E-05  1.0E-07
  1.150E+01  1.00376E-02  1.81949E-18  6.49753E-02 -2.23048E-05  1.0E-07
  1.175E+01  1.04773E-02  1.68079E-18  6.00220E-02 -2.51987E-05  1.0E-07
  1.200E+01  1.09262E-02  1.55533E-18  5.55420E-02 -2.82162E-05  1.0E-07
  1.225E+01  1.13844E-02  1.44164E-18  5.14818E-02 -3.13742E-05  1.0E-07
  1.250E+01  1.18520E-02  1.33839E-18  4.77949E-02 -3.46941E-05  1.0E-07
  1.275E+01  1.23288E-02  1.24447E-18  4.44407E-02 -3.81951E-05  1.0E-07
  1.300E+01  1.28150E-02  1.15886E-18  4.13837E-02 -4.18867E-05  1.0E-07
  1.325E+01  1.33104E-02  1.08070E-18  3.85924E-02 -4.57659E-05  1.0E-07
  1.350E+01  1.38150E-02  1.00919E-18  3.60389E-02 -4.98174E-05  1.0E-07
  1.375E+01  1.43290E-02  9.43664E-19  3.36988E-02 -5.40189E-05  1.0E-07
  1.400E+01  1.48521E-02  8.83498E-19  3.15503E-02 -5.83477E-05  1.0E-07
  1.425E+01  1.53845E-02  8.28163E-19  2.95742E-02 -6.27882E-05  1.0E-07
  1.450E+01  1.59262E-02  7.77186E-19  2.77538E-02 -6.73377E-05  1.0E-07
