 #
 # Subroutine ELSEPA. Elastic scattering of electrons and positrons
 #                    by neutral atoms and positive ions
 #
 # Projectile: electron
 # Kinetic energy = 1.20000E+02 eV = 4.40992E+00 a.u.
 #
 # Element:  H,  Z =   1,  atomic weight = 1.00790E+00 g/mol
 #
 # Nuclear model: Fermi distribution
 #                Average radius = 1.07281E-13 cm
 #                Skin thickness = 5.46000E-14 cm
 #
 # Number of electrons =  1
 #
 # Electron density: Read from file z_001.den   
 #                   Number of data points =  751
 #                   Volume integral = 1.00000E+00
 #
 # Furness-McCarthy exchange potential
 #
 # LDA absorption potential (only electron-hole excitations):
 #                           Delta = 1.02000E+01 eV
 #                            Aabs = 2.00000E+00
 #
 # Correlation-polarization potential (LDA):
 #                           Alpha = 6.66000E-25 cm**3
 #                            Bpol = 2.09165E+00
 #
 # Total elastic cross section = 3.93373E-17 cm**2 = 1.40476E+00 a0**2
 # 1st transport cross section = 5.21467E-18 cm**2 = 1.86219E-01 a0**2
 # 2nd transport cross section = 1.07168E-17 cm**2 = 3.82704E-01 a0**2
 #
 #    Absorption cross section = 6.87800E-17 cm**2 = 2.45618E+00 a0**2
 #   Grand total cross section = 1.08118E-16 cm**2 = 3.86098E+00 a0**2
 #
 #
 # Differential cross section:                       MU=(1-COS(THETA))/2
 #
 #  THETA        MU          DCS          DCS        Sherman      error
 #  (deg)                 (cm**2/sr)   (a0**2/sr)    function
 #----------------------------------------------------------------------
  0.000E+00  0.00000E+00  2.16076E-16  7.71620E+00  0.00000E+00  1.1E-06
  1.000E-04  7.61557E-13  2.16076E-16  7.71620E+00  0.00000E+00  1.1E-06
  1.250E-04  1.18994E-12  2.16076E-16  7.71620E+00  0.00000E+00  1.1E-06
  1.500E-04  1.71346E-12  2.16076E-16  7.71620E+00  0.00000E+00  1.1E-06
  1.750E-04  2.33225E-12  2.16076E-16  7.71620E+00  0.00000E+00  1.1E-06
  2.000E-04  3.04617E-12  2.16076E-16  7.71620E+00  0.00000E+00  1.1E-06
  2.250E-04  3.85530E-12  2.16076E-16  7.71620E+00  0.00000E+00  1.1E-06
  2.500E-04  4.75964E-12  2.16076E-16  7.71620E+00  0.00000E+00  1.1E-06
  2.750E-04  5.75917E-12  2.16076E-16  7.71620E+00  0.00000E+00  1.1E-06
  3.000E-04  6.85391E-12  2.16076E-16  7.71620E+00  0.00000E+00  1.1E-06
  3.250E-04  8.04379E-12  2.16076E-16  7.71620E+00  0.00000E+00  1.1E-06
  3.500E-04  9.32893E-12  2.16076E-16  7.71620E+00  0.00000E+00  1.1E-06
  3.750E-04  1.07092E-11  2.16076E-16  7.71620E+00  0.00000E+00  1.1E-06
  4.000E-04  1.21847E-11  2.16076E-16  7.71620E+00  0.00000E+00  1.1E-06
  4.250E-04  1.37554E-11  2.16076E-16  7.71620E+00  0.00000E+00  1.1E-06
  4.500E-04  1.54213E-11  2.16076E-16  7.71620E+00  0.00000E+00  1.1E-06
  4.750E-04  1.71823E-11  2.16076E-16  7.71620E+00  0.00000E+00  1.1E-06
  5.000E-04  1.90386E-11  2.16076E-16  7.71620E+00  0.00000E+00  1.1E-06
  5.250E-04  2.09900E-11  2.16076E-16  7.71620E+00  0.00000E+00  1.1E-06
  5.500E-04  2.30367E-11  2.16076E-16  7.71620E+00  0.00000E+00  1.1E-06
  5.750E-04  2.51785E-11  2.16076E-16  7.71620E+00  0.00000E+00  1.1E-06
  6.000E-04  2.74156E-11  2.16076E-16  7.71620E+00  0.00000E+00  1.1E-06
  6.250E-04  2.97478E-11  2.16076E-16  7.71620E+00  0.00000E+00  1.1E-06
  6.500E-04  3.21752E-11  2.16076E-16  7.71620E+00  0.00000E+00  1.1E-06
  6.750E-04  3.46979E-11  2.16076E-16  7.71620E+00  0.00000E+00  1.1E-06
  7.000E-04  3.73157E-11  2.16076E-16  7.71620E+00  0.00000E+00  1.1E-06
  7.250E-04  4.00286E-11  2.16076E-16  7.71620E+00  0.00000E+00  1.1E-06
  7.500E-04  4.28368E-11  2.16076E-16  7.71620E+00  0.00000E+00  1.1E-06
  7.750E-04  4.57402E-11  2.16076E-16  7.71620E+00  0.00000E+00  1.1E-06
  8.000E-04  4.87388E-11  2.16076E-16  7.71620E+00  0.00000E+00  1.1E-06
  8.250E-04  5.18325E-11  2.16076E-16  7.71620E+00  0.00000E+00  1.1E-06
  8.500E-04  5.50215E-11  2.16076E-16  7.71620E+00  0.00000E+00  1.1E-06
  8.750E-04  5.83057E-11  2.16076E-16  7.71620E+00  0.00000E+00  1.1E-06
  9.000E-04  6.16850E-11  2.16076E-16  7.71620E+00  0.00000E+00  1.1E-06
  9.250E-04  6.51595E-11  2.16076E-16  7.71620E+00  0.00000E+00  1.1E-06
  9.500E-04  6.87293E-11  2.16076E-16  7.71620E+00  0.00000E+00  1.1E-06
  9.750E-04  7.23943E-11  2.16076E-16  7.71620E+00  0.00000E+00  1.1E-06
  1.000E-03  7.61544E-11  2.16076E-16  7.71620E+00  0.00000E+00  1.1E-06
  1.250E-03  1.18991E-10  2.16076E-16  7.71620E+00  0.00000E+00  1.1E-06
  1.500E-03  1.71347E-10  2.16076E-16  7.71620E+00  0.00000E+00  1.1E-06
  1.750E-03  2.33223E-10  2.16076E-16  7.71620E+00  0.00000E+00  1.1E-06
  2.000E-03  3.04617E-10  2.16076E-16  7.71620E+00  0.00000E+00  1.1E-06
  2.250E-03  3.85531E-10  2.16075E-16  7.71620E+00  0.00000E+00  1.1E-06
  2.500E-03  4.75965E-10  2.16075E-16  7.71620E+00  0.00000E+00  1.1E-06
  2.750E-03  5.75917E-10  2.16075E-16  7.71619E+00  0.00000E+00  1.1E-06
  3.000E-03  6.85389E-10  2.16075E-16  7.71619E+00  0.00000E+00  1.1E-06
  3.250E-03  8.04380E-10  2.16075E-16  7.71619E+00  0.00000E+00  1.1E-06
  3.500E-03  9.32891E-10  2.16075E-16  7.71619E+00  0.00000E+00  1.1E-06
  3.750E-03  1.07092E-09  2.16075E-16  7.71619E+00  0.00000E+00  1.1E-06
  4.000E-03  1.21847E-09  2.16075E-16  7.71619E+00  0.00000E+00  1.1E-06
  4.250E-03  1.37554E-09  2.16075E-16  7.71619E+00  0.00000E+00  1.1E-06
  4.500E-03  1.54213E-09  2.16075E-16  7.71619E+00  0.00000E+00  1.1E-06
  4.750E-03  1.71823E-09  2.16075E-16  7.71619E+00  0.00000E+00  1.1E-06
  5.000E-03  1.90386E-09  2.16075E-16  7.71619E+00  0.00000E+00  1.1E-06
  5.250E-03  2.09900E-09  2.16075E-16  7.71618E+00  0.00000E+00  1.1E-06
  5.500E-03  2.30367E-09  2.16075E-16  7.71618E+00  0.00000E+00  1.1E-06
  5.750E-03  2.51785E-09  2.16075E-16  7.71618E+00  0.00000E+00  1.1E-06
  6.000E-03  2.74156E-09  2.16075E-16  7.71618E+00  0.00000E+00  1.1E-06
  6.250E-03  2.97478E-09  2.16075E-16  7.71618E+00  0.00000E+00  1.1E-06
  6.500E-03  3.21752E-09  2.16075E-16  7.71618E+00  0.00000E+00  1.1E-06
  6.750E-03  3.46978E-09  2.16075E-16  7.71618E+00  0.00000E+00  1.1E-06
  7.000E-03  3.73156E-09  2.16075E-16  7.71617E+00  0.00000E+00  1.1E-06
  7.250E-03  4.00286E-09  2.16075E-16  7.71617E+00  0.00000E+00  1.1E-06
  7.500E-03  4.28368E-09  2.16075E-16  7.71617E+00  0.00000E+00  1.1E-06
  7.750E-03  4.57402E-09  2.16075E-16  7.71617E+00  0.00000E+00  1.1E-06
  8.000E-03  4.87388E-09  2.16075E-16  7.71617E+00  0.00000E+00  1.1E-06
  8.250E-03  5.18326E-09  2.16075E-16  7.71616E+00  0.00000E+00  1.1E-06
  8.500E-03  5.50215E-09  2.16075E-16  7.71616E+00  0.00000E+00  1.1E-06
  8.750E-03  5.83057E-09  2.16074E-16  7.71616E+00  0.00000E+00  1.1E-06
  9.000E-03  6.16850E-09  2.16074E-16  7.71616E+00  0.00000E+00  1.1E-06
  9.250E-03  6.51596E-09  2.16074E-16  7.71616E+00  0.00000E+00  1.1E-06
  9.500E-03  6.87293E-09  2.16074E-16  7.71615E+00  0.00000E+00  1.1E-06
  9.750E-03  7.23942E-09  2.16074E-16  7.71615E+00  0.00000E+00  1.1E-06
  1.000E-02  7.61544E-09  2.16074E-16  7.71615E+00  0.00000E+00  1.1E-06
  1.250E-02  1.18991E-08  2.16073E-16  7.71612E+00  0.00000E+00  1.1E-06
  1.500E-02  1.71347E-08  2.16072E-16  7.71609E+00  0.00000E+00  1.1E-06
  1.750E-02  2.33223E-08  2.16071E-16  7.71605E+00  0.00000E+00  1.1E-06
  2.000E-02  3.04617E-08  2.16070E-16  7.71600E+00  0.00000E+00  1.1E-06
  2.250E-02  3.85531E-08  2.16068E-16  7.71595E+00  0.00000E+00  1.1E-06
  2.500E-02  4.75965E-08  2.16067E-16  7.71589E+00  0.00000E+00  1.1E-06
  2.750E-02  5.75917E-08  2.16065E-16  7.71582E+00  0.00000E+00  1.1E-06
  3.000E-02  6.85389E-08  2.16063E-16  7.71575E+00  0.00000E+00  1.1E-06
  3.250E-02  8.04380E-08  2.16061E-16  7.71567E+00  0.00000E+00  1.1E-06
  3.500E-02  9.32891E-08  2.16058E-16  7.71559E+00  0.00000E+00  1.1E-06
  3.750E-02  1.07092E-07  2.16056E-16  7.71550E+00  0.00000E+00  1.1E-06
  4.000E-02  1.21847E-07  2.16053E-16  7.71540E+00  0.00000E+00  1.1E-06
  4.250E-02  1.37554E-07  2.16050E-16  7.71530E+00  0.00000E+00  1.1E-06
  4.500E-02  1.54213E-07  2.16047E-16  7.71519E+00  0.00000E+00  1.1E-06
  4.750E-02  1.71823E-07  2.16044E-16  7.71507E+00  0.00000E+00  1.1E-06
  5.000E-02  1.90386E-07  2.16041E-16  7.71495E+00  0.00000E+00  1.1E-06
  5.250E-02  2.09900E-07  2.16037E-16  7.71482E+00  0.00000E+00  1.1E-06
  5.500E-02  2.30367E-07  2.16033E-16  7.71469E+00  0.00000E+00  1.1E-06
  5.750E-02  2.51785E-07  2.16029E-16  7.71455E+00  0.00000E+00  1.1E-06
  6.000E-02  2.74156E-07  2.16025E-16  7.71440E+00  0.00000E+00  1.1E-06
  6.250E-02  2.97478E-07  2.16021E-16  7.71425E+00  0.00000E+00  1.1E-06
  6.500E-02  3.21752E-07  2.16017E-16  7.71409E+00  0.00000E+00  1.1E-06
  6.750E-02  3.46978E-07  2.16012E-16  7.71393E+00  0.00000E+00  1.1E-06
  7.000E-02  3.73156E-07  2.16007E-16  7.71376E+00  0.00000E+00  1.1E-06
  7.250E-02  4.00286E-07  2.16002E-16  7.71358E+00  0.00000E+00  1.1E-06
  7.500E-02  4.28368E-07  2.15997E-16  7.71339E+00  0.00000E+00  1.1E-06
  7.750E-02  4.57402E-07  2.15992E-16  7.71320E+00  0.00000E+00  1.1E-06
  8.000E-02  4.87388E-07  2.15986E-16  7.71301E+00  0.00000E+00  1.1E-06
  8.250E-02  5.18325E-07  2.15981E-16  7.71281E+00  0.00000E+00  1.1E-06
  8.500E-02  5.50215E-07  2.15975E-16  7.71260E+00  0.00000E+00  1.1E-06
  8.750E-02  5.83057E-07  2.15969E-16  7.71238E+00  0.00000E+00  1.1E-06
  9.000E-02  6.16850E-07  2.15963E-16  7.71216E+00  0.00000E+00  1.1E-06
  9.250E-02  6.51596E-07  2.15956E-16  7.71193E+00  0.00000E+00  1.1E-06
  9.500E-02  6.87293E-07  2.15950E-16  7.71170E+00  0.00000E+00  1.1E-06
  9.750E-02  7.23942E-07  2.15943E-16  7.71146E+00  0.00000E+00  1.1E-06
  1.000E-01  7.61543E-07  2.15936E-16  7.71122E+00  0.00000E+00  1.1E-06
  1.250E-01  1.18991E-06  2.15858E-16  7.70842E+00  0.00000E+00  1.0E-06
  1.500E-01  1.71347E-06  2.15762E-16  7.70501E+00  0.00000E+00  1.0E-06
  1.750E-01  2.33223E-06  2.15649E-16  7.70098E+00  0.00000E+00  1.0E-06
  2.000E-01  3.04617E-06  2.15520E-16  7.69635E+00  0.00000E+00  1.0E-06
  2.250E-01  3.85531E-06  2.15373E-16  7.69112E+00  0.00000E+00  9.8E-07
  2.500E-01  4.75964E-06  2.15210E-16  7.68528E+00  0.00000E+00  9.6E-07
  2.750E-01  5.75916E-06  2.15030E-16  7.67886E+00  0.00000E+00  9.3E-07
  3.000E-01  6.85388E-06  2.14834E-16  7.67185E+00  0.00000E+00  9.1E-07
  3.250E-01  8.04378E-06  2.14621E-16  7.66426E+00  0.00000E+00  8.8E-07
  3.500E-01  9.32888E-06  2.14393E-16  7.65611E+00  0.00000E+00  8.5E-07
  3.750E-01  1.07092E-05  2.14149E-16  7.64739E+00  0.00000E+00  8.2E-07
  4.000E-01  1.21846E-05  2.13889E-16  7.63812E+00  0.00000E+00  7.8E-07
  4.250E-01  1.37553E-05  2.13614E-16  7.62830E+00  0.00000E+00  7.5E-07
  4.500E-01  1.54212E-05  2.13324E-16  7.61796E+00  0.00000E+00  7.1E-07
  4.750E-01  1.71822E-05  2.13020E-16  7.60708E+00  0.00000E+00  6.7E-07
  5.000E-01  1.90385E-05  2.12701E-16  7.59570E+00  0.00000E+00  6.3E-07
  5.250E-01  2.09899E-05  2.12368E-16  7.58381E+00  0.00000E+00  5.9E-07
  5.500E-01  2.30365E-05  2.12022E-16  7.57143E+00  0.00000E+00  5.5E-07
  5.750E-01  2.51783E-05  2.11662E-16  7.55858E+00  0.00000E+00  5.1E-07
  6.000E-01  2.74153E-05  2.11289E-16  7.54526E+00  0.00000E+00  4.7E-07
  6.250E-01  2.97475E-05  2.10903E-16  7.53148E+00  0.00000E+00  4.3E-07
  6.500E-01  3.21749E-05  2.10505E-16  7.51726E+00 -1.49955E-09  3.8E-07
  6.750E-01  3.46974E-05  2.10095E-16  7.50262E+00 -1.76176E-09  3.4E-07
  7.000E-01  3.73152E-05  2.09673E-16  7.48756E+00 -2.04439E-09  3.0E-07
  7.250E-01  4.00281E-05  2.09240E-16  7.47210E+00 -2.34769E-09  2.5E-07
  7.500E-01  4.28362E-05  2.08796E-16  7.45625E+00 -2.67190E-09  2.1E-07
  7.750E-01  4.57395E-05  2.08342E-16  7.44003E+00 -3.01718E-09  1.7E-07
  8.000E-01  4.87380E-05  2.07878E-16  7.42345E+00 -3.38367E-09  1.2E-07
  8.250E-01  5.18317E-05  2.07404E-16  7.40653E+00 -3.77144E-09  1.0E-07
  8.500E-01  5.50205E-05  2.06921E-16  7.38927E+00 -4.18052E-09  1.0E-07
  8.750E-01  5.83045E-05  2.06429E-16  7.37170E+00 -4.61089E-09  1.0E-07
  9.000E-01  6.16838E-05  2.05928E-16  7.35383E+00 -5.06248E-09  1.0E-07
  9.250E-01  6.51582E-05  2.05420E-16  7.33567E+00 -5.53518E-09  1.0E-07
  9.500E-01  6.87277E-05  2.04904E-16  7.31724E+00 -6.02881E-09  1.1E-07
  9.750E-01  7.23925E-05  2.04380E-16  7.29855E+00 -6.54316E-09  1.5E-07
  1.000E+00  7.61524E-05  2.03850E-16  7.27961E+00 -7.07797E-09  1.8E-07
  1.100E+00  9.21439E-05  2.01668E-16  7.20171E+00 -9.41492E-09  3.0E-07
  1.200E+00  1.09658E-04  1.99409E-16  7.12103E+00 -1.20465E-08  3.9E-07
  1.300E+00  1.28695E-04  1.97095E-16  7.03840E+00 -1.49353E-08  4.4E-07
  1.400E+00  1.49255E-04  1.94749E-16  6.95460E+00 -1.80357E-08  4.6E-07
  1.500E+00  1.71338E-04  1.92389E-16  6.87035E+00 -2.12954E-08  4.4E-07
  1.600E+00  1.94942E-04  1.90034E-16  6.78625E+00 -2.46589E-08  4.0E-07
  1.700E+00  2.20070E-04  1.87698E-16  6.70282E+00 -2.80702E-08  3.2E-07
  1.800E+00  2.46720E-04  1.85392E-16  6.62047E+00 -3.14755E-08  2.3E-07
  1.900E+00  2.74892E-04  1.83125E-16  6.53952E+00 -3.48270E-08  1.2E-07
  2.000E+00  3.04586E-04  1.80904E-16  6.46021E+00 -3.80847E-08  1.0E-07
  2.100E+00  3.35803E-04  1.78733E-16  6.38267E+00 -4.12191E-08  1.0E-07
  2.200E+00  3.68542E-04  1.76613E-16  6.30697E+00 -4.42127E-08  1.9E-07
  2.300E+00  4.02802E-04  1.74544E-16  6.23310E+00 -4.70606E-08  2.7E-07
  2.400E+00  4.38585E-04  1.72525E-16  6.16099E+00 -4.97708E-08  3.3E-07
  2.500E+00  4.75889E-04  1.70553E-16  6.09055E+00 -5.23635E-08  3.6E-07
  2.600E+00  5.14715E-04  1.68623E-16  6.02165E+00 -5.48696E-08  3.6E-07
  2.700E+00  5.55063E-04  1.66732E-16  5.95412E+00 -5.73285E-08  3.4E-07
  2.800E+00  5.96931E-04  1.64876E-16  5.88781E+00 -5.97861E-08  2.9E-07
  2.900E+00  6.40321E-04  1.63049E-16  5.82257E+00 -6.22915E-08  2.2E-07
  3.000E+00  6.85233E-04  1.61247E-16  5.75823E+00 -6.48943E-08  1.4E-07
  3.100E+00  7.31665E-04  1.59467E-16  5.69468E+00 -6.76420E-08  1.0E-07
  3.200E+00  7.79618E-04  1.57706E-16  5.63180E+00 -7.05767E-08  1.0E-07
  3.300E+00  8.29092E-04  1.55962E-16  5.56950E+00 -7.37334E-08  1.3E-07
  3.400E+00  8.80086E-04  1.54232E-16  5.50773E+00 -7.71380E-08  2.1E-07
  3.500E+00  9.32601E-04  1.52516E-16  5.44646E+00 -8.08061E-08  2.7E-07
  3.600E+00  9.86636E-04  1.50814E-16  5.38566E+00 -8.47422E-08  3.1E-07
  3.700E+00  1.04219E-03  1.49125E-16  5.32535E+00 -8.89400E-08  3.2E-07
  3.800E+00  1.09927E-03  1.47451E-16  5.26556E+00 -9.33831E-08  3.2E-07
  3.900E+00  1.15786E-03  1.45792E-16  5.20633E+00 -9.80462E-08  2.8E-07
  4.000E+00  1.21797E-03  1.44150E-16  5.14770E+00 -1.02897E-07  2.3E-07
  4.100E+00  1.27961E-03  1.42527E-16  5.08973E+00 -1.07898E-07  1.6E-07
  4.200E+00  1.34276E-03  1.40923E-16  5.03245E+00 -1.13011E-07  1.0E-07
  4.300E+00  1.40743E-03  1.39340E-16  4.97592E+00 -1.18194E-07  1.0E-07
  4.400E+00  1.47362E-03  1.37779E-16  4.92018E+00 -1.23413E-07  1.0E-07
  4.500E+00  1.54133E-03  1.36241E-16  4.86525E+00 -1.28636E-07  1.6E-07
  4.600E+00  1.61056E-03  1.34726E-16  4.81114E+00 -1.33837E-07  2.3E-07
  4.700E+00  1.68131E-03  1.33234E-16  4.75786E+00 -1.39001E-07  2.7E-07
  4.800E+00  1.75357E-03  1.31765E-16  4.70541E+00 -1.44122E-07  3.0E-07
  4.900E+00  1.82735E-03  1.30318E-16  4.65376E+00 -1.49203E-07  3.0E-07
  5.000E+00  1.90265E-03  1.28894E-16  4.60288E+00 -1.54255E-07  2.8E-07
  5.100E+00  1.97947E-03  1.27490E-16  4.55275E+00 -1.59302E-07  2.4E-07
  5.200E+00  2.05780E-03  1.26106E-16  4.50332E+00 -1.64369E-07  1.8E-07
  5.300E+00  2.13765E-03  1.24740E-16  4.45454E+00 -1.69491E-07  1.1E-07
  5.400E+00  2.21902E-03  1.23391E-16  4.40639E+00 -1.74704E-07  1.0E-07
  5.500E+00  2.30190E-03  1.22059E-16  4.35881E+00 -1.80043E-07  1.0E-07
  5.600E+00  2.38630E-03  1.20742E-16  4.31177E+00 -1.85545E-07  1.3E-07
  5.700E+00  2.47222E-03  1.19439E-16  4.26523E+00 -1.91240E-07  1.9E-07
  5.800E+00  2.55965E-03  1.18149E-16  4.21918E+00 -1.97153E-07  2.4E-07
  5.900E+00  2.64859E-03  1.16873E-16  4.17360E+00 -2.03301E-07  2.8E-07
  6.000E+00  2.73905E-03  1.15609E-16  4.12847E+00 -2.09694E-07  2.9E-07
  6.100E+00  2.83103E-03  1.14358E-16  4.08378E+00 -2.16333E-07  2.8E-07
  6.200E+00  2.92452E-03  1.13119E-16  4.03955E+00 -2.23208E-07  2.5E-07
  6.300E+00  3.01952E-03  1.11893E-16  3.99578E+00 -2.30304E-07  2.0E-07
  6.400E+00  3.11604E-03  1.10680E-16  3.95247E+00 -2.37598E-07  1.4E-07
  6.500E+00  3.21407E-03  1.09481E-16  3.90963E+00 -2.45061E-07  1.0E-07
  6.600E+00  3.31362E-03  1.08295E-16  3.86729E+00 -2.52662E-07  1.0E-07
  6.700E+00  3.41468E-03  1.07124E-16  3.82546E+00 -2.60369E-07  1.0E-07
  6.800E+00  3.51725E-03  1.05967E-16  3.78413E+00 -2.68150E-07  1.6E-07
  6.900E+00  3.62133E-03  1.04824E-16  3.74333E+00 -2.75977E-07  2.2E-07
  7.000E+00  3.72692E-03  1.03696E-16  3.70306E+00 -2.83827E-07  2.6E-07
  7.100E+00  3.83403E-03  1.02583E-16  3.66331E+00 -2.91684E-07  2.8E-07
  7.200E+00  3.94265E-03  1.01484E-16  3.62408E+00 -2.99539E-07  2.8E-07
  7.300E+00  4.05278E-03  1.00400E-16  3.58536E+00 -3.07392E-07  2.6E-07
  7.400E+00  4.16442E-03  9.93301E-17  3.54714E+00 -3.15250E-07  2.2E-07
  7.500E+00  4.27757E-03  9.82736E-17  3.50941E+00 -3.23130E-07  1.6E-07
  7.600E+00  4.39223E-03  9.72302E-17  3.47215E+00 -3.31053E-07  1.0E-07
  7.700E+00  4.50840E-03  9.61994E-17  3.43534E+00 -3.39047E-07  1.0E-07
  7.800E+00  4.62608E-03  9.51807E-17  3.39897E+00 -3.47143E-07  1.0E-07
  7.900E+00  4.74527E-03  9.41735E-17  3.36300E+00 -3.55373E-07  1.3E-07
  8.000E+00  4.86597E-03  9.31774E-17  3.32743E+00 -3.63767E-07  1.9E-07
  8.100E+00  4.98817E-03  9.21919E-17  3.29223E+00 -3.72355E-07  2.4E-07
  8.200E+00  5.11188E-03  9.12166E-17  3.25740E+00 -3.81160E-07  2.7E-07
  8.300E+00  5.23711E-03  9.02512E-17  3.22293E+00 -3.90200E-07  2.8E-07
  8.400E+00  5.36383E-03  8.92956E-17  3.18880E+00 -3.99485E-07  2.7E-07
  8.500E+00  5.49207E-03  8.83495E-17  3.15502E+00 -4.09017E-07  2.4E-07
  8.600E+00  5.62181E-03  8.74130E-17  3.12158E+00 -4.18792E-07  1.9E-07
  8.700E+00  5.75306E-03  8.64861E-17  3.08848E+00 -4.28796E-07  1.3E-07
  8.800E+00  5.88581E-03  8.55688E-17  3.05572E+00 -4.39010E-07  1.0E-07
  8.900E+00  6.02007E-03  8.46613E-17  3.02331E+00 -4.49410E-07  1.0E-07
  9.000E+00  6.15583E-03  8.37636E-17  2.99125E+00 -4.59967E-07  1.0E-07
  9.100E+00  6.29310E-03  8.28758E-17  2.95955E+00 -4.70652E-07  1.6E-07
  9.200E+00  6.43187E-03  8.19982E-17  2.92821E+00 -4.81436E-07  2.2E-07
  9.300E+00  6.57214E-03  8.11306E-17  2.89723E+00 -4.92292E-07  2.5E-07
  9.400E+00  6.71392E-03  8.02733E-17  2.86661E+00 -5.03198E-07  2.7E-07
  9.500E+00  6.85720E-03  7.94261E-17  2.83636E+00 -5.14138E-07  2.7E-07
  9.600E+00  7.00198E-03  7.85889E-17  2.80646E+00 -5.25102E-07  2.5E-07
  9.700E+00  7.14827E-03  7.77618E-17  2.77692E+00 -5.36089E-07  2.1E-07
  9.800E+00  7.29605E-03  7.69443E-17  2.74773E+00 -5.47103E-07  1.5E-07
  9.900E+00  7.44534E-03  7.61365E-17  2.71888E+00 -5.58158E-07  1.0E-07
  1.000E+01  7.59612E-03  7.53379E-17  2.69036E+00 -5.69275E-07  1.0E-07
  1.025E+01  7.97965E-03  7.33801E-17  2.62045E+00 -5.97502E-07  1.6E-07
  1.050E+01  8.37255E-03  7.14742E-17  2.55239E+00 -6.26720E-07  2.7E-07
  1.075E+01  8.77480E-03  6.96164E-17  2.48605E+00 -6.57327E-07  2.5E-07
  1.100E+01  9.18641E-03  6.78043E-17  2.42134E+00 -6.89518E-07  1.2E-07
  1.125E+01  9.60736E-03  6.60372E-17  2.35823E+00 -7.23212E-07  1.0E-07
  1.150E+01  1.00376E-02  6.43155E-17  2.29675E+00 -7.58086E-07  2.2E-07
  1.175E+01  1.04773E-02  6.26396E-17  2.23690E+00 -7.93719E-07  2.8E-07
  1.200E+01  1.09262E-02  6.10098E-17  2.17870E+00 -8.29761E-07  2.1E-07
  1.225E+01  1.13844E-02  5.94250E-17  2.12211E+00 -8.66084E-07  1.0E-07
  1.250E+01  1.18520E-02  5.78835E-17  2.06706E+00 -9.02834E-07  1.4E-07
  1.275E+01  1.23288E-02  5.63826E-17  2.01346E+00 -9.40378E-07  2.6E-07
  1.300E+01  1.28150E-02  5.49197E-17  1.96122E+00 -9.79157E-07  2.6E-07
  1.325E+01  1.33104E-02  5.34928E-17  1.91026E+00 -1.01951E-06  1.5E-07
  1.350E+01  1.38150E-02  5.21008E-17  1.86055E+00 -1.06155E-06  1.0E-07
  1.375E+01  1.43290E-02  5.07433E-17  1.81207E+00 -1.10510E-06  2.1E-07
