 #
 # Subroutine ELSEPA. Elastic scattering of electrons and positrons
 #                    by neutral atoms and positive ions
 #
 # Projectile: electron
 # Kinetic energy = 9.00000E+01 eV = 3.30744E+00 a.u.
 #
 #  ***  WARNING: Energy is too low.
 #                The reliability of the results is questionable.
 #
 # Element:  H,  Z =   1,  atomic weight = 1.00790E+00 g/mol
 #
 # Nuclear model: Fermi distribution
 #                Average radius = 1.07281E-13 cm
 #                Skin thickness = 5.46000E-14 cm
 #
 # Number of electrons =  1
 #
 # Electron density: Read from file z_001.den   
 #                   Number of data points =  751
 #                   Volume integral = 1.00000E+00
 #
 # Furness-McCarthy exchange potential
 #
 # LDA absorption potential (only electron-hole excitations):
 #                           Delta = 1.02000E+01 eV
 #                            Aabs = 2.00000E+00
 #
 # Correlation-polarization potential (LDA):
 #                           Alpha = 6.66000E-25 cm**3
 #                            Bpol = 1.58114E+00
 #
 # Total elastic cross section = 5.46521E-17 cm**2 = 1.95166E+00 a0**2
 # 1st transport cross section = 8.60513E-18 cm**2 = 3.07295E-01 a0**2
 # 2nd transport cross section = 1.70107E-17 cm**2 = 6.07463E-01 a0**2
 #
 #    Absorption cross section = 7.94497E-17 cm**2 = 2.83720E+00 a0**2
 #   Grand total cross section = 1.34103E-16 cm**2 = 4.78891E+00 a0**2
 #
 #
 # Differential cross section:                       MU=(1-COS(THETA))/2
 #
 #  THETA        MU          DCS          DCS        Sherman      error
 #  (deg)                 (cm**2/sr)   (a0**2/sr)    function
 #----------------------------------------------------------------------
  0.000E+00  0.00000E+00  2.33524E-16  8.33930E+00  0.00000E+00  1.0E-07
  1.000E-04  7.61557E-13  2.33524E-16  8.33930E+00 -7.96771E-13  1.0E-07
  1.250E-04  1.18994E-12  2.33524E-16  8.33930E+00 -9.95964E-13  1.0E-07
  1.500E-04  1.71346E-12  2.33524E-16  8.33930E+00 -1.19516E-12  1.0E-07
  1.750E-04  2.33225E-12  2.33524E-16  8.33930E+00 -1.39435E-12  1.0E-07
  2.000E-04  3.04617E-12  2.33524E-16  8.33930E+00 -1.59354E-12  1.0E-07
  2.250E-04  3.85530E-12  2.33524E-16  8.33930E+00 -1.79273E-12  1.0E-07
  2.500E-04  4.75964E-12  2.33524E-16  8.33930E+00 -1.99193E-12  1.0E-07
  2.750E-04  5.75917E-12  2.33524E-16  8.33930E+00 -2.19112E-12  1.0E-07
  3.000E-04  6.85391E-12  2.33524E-16  8.33930E+00 -2.39031E-12  1.0E-07
  3.250E-04  8.04379E-12  2.33524E-16  8.33930E+00 -2.58951E-12  1.0E-07
  3.500E-04  9.32893E-12  2.33524E-16  8.33930E+00 -2.78870E-12  1.0E-07
  3.750E-04  1.07092E-11  2.33524E-16  8.33930E+00 -2.98789E-12  1.0E-07
  4.000E-04  1.21847E-11  2.33524E-16  8.33930E+00 -3.18708E-12  1.0E-07
  4.250E-04  1.37554E-11  2.33524E-16  8.33930E+00 -3.38628E-12  1.0E-07
  4.500E-04  1.54213E-11  2.33524E-16  8.33930E+00 -3.58547E-12  1.0E-07
  4.750E-04  1.71823E-11  2.33524E-16  8.33930E+00 -3.78466E-12  1.0E-07
  5.000E-04  1.90386E-11  2.33524E-16  8.33930E+00 -3.98386E-12  1.0E-07
  5.250E-04  2.09900E-11  2.33524E-16  8.33930E+00 -4.18305E-12  1.0E-07
  5.500E-04  2.30367E-11  2.33524E-16  8.33930E+00 -4.38224E-12  1.0E-07
  5.750E-04  2.51785E-11  2.33524E-16  8.33930E+00 -4.58143E-12  1.0E-07
  6.000E-04  2.74156E-11  2.33524E-16  8.33930E+00 -4.78063E-12  1.0E-07
  6.250E-04  2.97478E-11  2.33524E-16  8.33930E+00 -4.97982E-12  1.0E-07
  6.500E-04  3.21752E-11  2.33524E-16  8.33930E+00 -5.17901E-12  1.0E-07
  6.750E-04  3.46979E-11  2.33524E-16  8.33930E+00 -5.37821E-12  1.0E-07
  7.000E-04  3.73157E-11  2.33524E-16  8.33930E+00 -5.57740E-12  1.0E-07
  7.250E-04  4.00286E-11  2.33524E-16  8.33930E+00 -5.77659E-12  1.0E-07
  7.500E-04  4.28368E-11  2.33524E-16  8.33930E+00 -5.97579E-12  1.0E-07
  7.750E-04  4.57402E-11  2.33524E-16  8.33930E+00 -6.17498E-12  1.0E-07
  8.000E-04  4.87388E-11  2.33524E-16  8.33930E+00 -6.37417E-12  1.0E-07
  8.250E-04  5.18325E-11  2.33524E-16  8.33930E+00 -6.57336E-12  1.0E-07
  8.500E-04  5.50215E-11  2.33524E-16  8.33930E+00 -6.77256E-12  1.0E-07
  8.750E-04  5.83057E-11  2.33524E-16  8.33930E+00 -6.97175E-12  1.0E-07
  9.000E-04  6.16850E-11  2.33524E-16  8.33930E+00 -7.17094E-12  1.0E-07
  9.250E-04  6.51595E-11  2.33524E-16  8.33930E+00 -7.37014E-12  1.0E-07
  9.500E-04  6.87293E-11  2.33524E-16  8.33930E+00 -7.56933E-12  1.0E-07
  9.750E-04  7.23943E-11  2.33524E-16  8.33930E+00 -7.76852E-12  1.0E-07
  1.000E-03  7.61544E-11  2.33524E-16  8.33930E+00 -7.96772E-12  1.0E-07
  1.250E-03  1.18991E-10  2.33524E-16  8.33930E+00 -9.95965E-12  1.0E-07
  1.500E-03  1.71347E-10  2.33524E-16  8.33930E+00 -1.19516E-11  1.0E-07
  1.750E-03  2.33223E-10  2.33524E-16  8.33930E+00 -1.39435E-11  1.0E-07
  2.000E-03  3.04617E-10  2.33524E-16  8.33930E+00 -1.59355E-11  1.0E-07
  2.250E-03  3.85531E-10  2.33524E-16  8.33930E+00 -1.79274E-11  1.0E-07
  2.500E-03  4.75965E-10  2.33524E-16  8.33930E+00 -1.99194E-11  1.0E-07
  2.750E-03  5.75917E-10  2.33524E-16  8.33930E+00 -2.19113E-11  1.0E-07
  3.000E-03  6.85389E-10  2.33524E-16  8.33929E+00 -2.39033E-11  1.0E-07
  3.250E-03  8.04380E-10  2.33524E-16  8.33929E+00 -2.58953E-11  1.0E-07
  3.500E-03  9.32891E-10  2.33524E-16  8.33929E+00 -2.78873E-11  1.0E-07
  3.750E-03  1.07092E-09  2.33524E-16  8.33929E+00 -2.98793E-11  1.0E-07
  4.000E-03  1.21847E-09  2.33524E-16  8.33929E+00 -3.18713E-11  1.0E-07
  4.250E-03  1.37554E-09  2.33524E-16  8.33929E+00 -3.38633E-11  1.0E-07
  4.500E-03  1.54213E-09  2.33524E-16  8.33929E+00 -3.58553E-11  1.0E-07
  4.750E-03  1.71823E-09  2.33524E-16  8.33929E+00 -3.78473E-11  1.0E-07
  5.000E-03  1.90386E-09  2.33524E-16  8.33929E+00 -3.98394E-11  1.0E-07
  5.250E-03  2.09900E-09  2.33524E-16  8.33929E+00 -4.18314E-11  1.0E-07
  5.500E-03  2.30367E-09  2.33524E-16  8.33929E+00 -4.38235E-11  1.0E-07
  5.750E-03  2.51785E-09  2.33524E-16  8.33929E+00 -4.58156E-11  1.0E-07
  6.000E-03  2.74156E-09  2.33524E-16  8.33928E+00 -4.78077E-11  1.0E-07
  6.250E-03  2.97478E-09  2.33524E-16  8.33928E+00 -4.97998E-11  1.0E-07
  6.500E-03  3.21752E-09  2.33524E-16  8.33928E+00 -5.17919E-11  1.0E-07
  6.750E-03  3.46978E-09  2.33524E-16  8.33928E+00 -5.37840E-11  1.0E-07
  7.000E-03  3.73156E-09  2.33524E-16  8.33928E+00 -5.57762E-11  1.0E-07
  7.250E-03  4.00286E-09  2.33524E-16  8.33928E+00 -5.77684E-11  1.0E-07
  7.500E-03  4.28368E-09  2.33524E-16  8.33928E+00 -5.97605E-11  1.0E-07
  7.750E-03  4.57402E-09  2.33523E-16  8.33927E+00 -6.17528E-11  1.0E-07
  8.000E-03  4.87388E-09  2.33523E-16  8.33927E+00 -6.37450E-11  1.0E-07
  8.250E-03  5.18326E-09  2.33523E-16  8.33927E+00 -6.57372E-11  1.0E-07
  8.500E-03  5.50215E-09  2.33523E-16  8.33927E+00 -6.77295E-11  1.0E-07
  8.750E-03  5.83057E-09  2.33523E-16  8.33927E+00 -6.97218E-11  1.0E-07
  9.000E-03  6.16850E-09  2.33523E-16  8.33927E+00 -7.17141E-11  1.0E-07
  9.250E-03  6.51596E-09  2.33523E-16  8.33926E+00 -7.37064E-11  1.0E-07
  9.500E-03  6.87293E-09  2.33523E-16  8.33926E+00 -7.56988E-11  1.0E-07
  9.750E-03  7.23942E-09  2.33523E-16  8.33926E+00 -7.76912E-11  1.0E-07
  1.000E-02  7.61544E-09  2.33523E-16  8.33926E+00 -7.96836E-11  1.0E-07
  1.250E-02  1.18991E-08  2.33522E-16  8.33924E+00 -9.96090E-11  1.0E-07
  1.500E-02  1.71347E-08  2.33522E-16  8.33921E+00 -1.19537E-10  1.0E-07
  1.750E-02  2.33223E-08  2.33521E-16  8.33918E+00 -1.39470E-10  1.0E-07
  2.000E-02  3.04617E-08  2.33520E-16  8.33914E+00 -1.59406E-10  1.0E-07
  2.250E-02  3.85531E-08  2.33519E-16  8.33910E+00 -1.79347E-10  1.0E-07
  2.500E-02  4.75965E-08  2.33517E-16  8.33905E+00 -1.99294E-10  1.0E-07
  2.750E-02  5.75917E-08  2.33516E-16  8.33900E+00 -2.19246E-10  1.0E-07
  3.000E-02  6.85389E-08  2.33514E-16  8.33895E+00 -2.39206E-10  1.0E-07
  3.250E-02  8.04380E-08  2.33513E-16  8.33888E+00 -2.59172E-10  1.0E-07
  3.500E-02  9.32891E-08  2.33511E-16  8.33882E+00 -2.79147E-10  1.0E-07
  3.750E-02  1.07092E-07  2.33509E-16  8.33875E+00 -2.99129E-10  1.0E-07
  4.000E-02  1.21847E-07  2.33507E-16  8.33867E+00 -3.19121E-10  1.0E-07
  4.250E-02  1.37554E-07  2.33504E-16  8.33859E+00 -3.39123E-10  1.0E-07
  4.500E-02  1.54213E-07  2.33502E-16  8.33851E+00 -3.59135E-10  1.0E-07
  4.750E-02  1.71823E-07  2.33499E-16  8.33842E+00 -3.79158E-10  1.0E-07
  5.000E-02  1.90386E-07  2.33497E-16  8.33832E+00 -3.99192E-10  1.0E-07
  5.250E-02  2.09900E-07  2.33494E-16  8.33822E+00 -4.19239E-10  1.0E-07
  5.500E-02  2.30367E-07  2.33491E-16  8.33811E+00 -4.39298E-10  1.0E-07
  5.750E-02  2.51785E-07  2.33488E-16  8.33800E+00 -4.59370E-10  1.0E-07
  6.000E-02  2.74156E-07  2.33485E-16  8.33789E+00 -4.79456E-10  1.0E-07
  6.250E-02  2.97478E-07  2.33481E-16  8.33777E+00 -4.99557E-10  1.0E-07
  6.500E-02  3.21752E-07  2.33478E-16  8.33765E+00 -5.19673E-10  1.0E-07
  6.750E-02  3.46978E-07  2.33474E-16  8.33752E+00 -5.39805E-10  1.0E-07
  7.000E-02  3.73156E-07  2.33470E-16  8.33738E+00 -5.59953E-10  1.0E-07
  7.250E-02  4.00286E-07  2.33467E-16  8.33724E+00 -5.80117E-10  1.0E-07
  7.500E-02  4.28368E-07  2.33463E-16  8.33710E+00 -6.00300E-10  1.0E-07
  7.750E-02  4.57402E-07  2.33458E-16  8.33695E+00 -6.20500E-10  1.0E-07
  8.000E-02  4.87388E-07  2.33454E-16  8.33680E+00 -6.40719E-10  1.0E-07
  8.250E-02  5.18325E-07  2.33450E-16  8.33664E+00 -6.60958E-10  1.0E-07
  8.500E-02  5.50215E-07  2.33445E-16  8.33647E+00 -6.81216E-10  1.0E-07
  8.750E-02  5.83057E-07  2.33440E-16  8.33630E+00 -7.01495E-10  1.0E-07
  9.000E-02  6.16850E-07  2.33435E-16  8.33613E+00 -7.21795E-10  1.0E-07
  9.250E-02  6.51596E-07  2.33430E-16  8.33595E+00 -7.42117E-10  1.0E-07
  9.500E-02  6.87293E-07  2.33425E-16  8.33577E+00 -7.62461E-10  1.0E-07
  9.750E-02  7.23942E-07  2.33420E-16  8.33558E+00 -7.82828E-10  1.0E-07
  1.000E-01  7.61543E-07  2.33415E-16  8.33539E+00 -8.03218E-10  1.0E-07
  1.250E-01  1.18991E-06  2.33353E-16  8.33319E+00 -1.00855E-09  1.0E-07
  1.500E-01  1.71347E-06  2.33278E-16  8.33051E+00 -1.21688E-09  1.0E-07
  1.750E-01  2.33223E-06  2.33190E-16  8.32735E+00 -1.42881E-09  1.0E-07
  2.000E-01  3.04617E-06  2.33088E-16  8.32371E+00 -1.64493E-09  1.0E-07
  2.250E-01  3.85531E-06  2.32972E-16  8.31959E+00 -1.86580E-09  1.0E-07
  2.500E-01  4.75964E-06  2.32844E-16  8.31500E+00 -2.09200E-09  1.0E-07
  2.750E-01  5.75916E-06  2.32702E-16  8.30994E+00 -2.32410E-09  1.0E-07
  3.000E-01  6.85388E-06  2.32547E-16  8.30441E+00 -2.56265E-09  1.0E-07
  3.250E-01  8.04378E-06  2.32379E-16  8.29842E+00 -2.80818E-09  1.0E-07
  3.500E-01  9.32888E-06  2.32199E-16  8.29197E+00 -3.06124E-09  1.0E-07
  3.750E-01  1.07092E-05  2.32006E-16  8.28507E+00 -3.32234E-09  1.0E-07
  4.000E-01  1.21846E-05  2.31800E-16  8.27772E+00 -3.59199E-09  1.0E-07
  4.250E-01  1.37553E-05  2.31582E-16  8.26993E+00 -3.87068E-09  1.0E-07
  4.500E-01  1.54212E-05  2.31351E-16  8.26170E+00 -4.15889E-09  1.0E-07
  4.750E-01  1.71822E-05  2.31109E-16  8.25305E+00 -4.45710E-09  1.0E-07
  5.000E-01  1.90385E-05  2.30855E-16  8.24396E+00 -4.76573E-09  1.0E-07
  5.250E-01  2.09899E-05  2.30589E-16  8.23447E+00 -5.08523E-09  1.0E-07
  5.500E-01  2.30365E-05  2.30311E-16  8.22456E+00 -5.41602E-09  1.0E-07
  5.750E-01  2.51783E-05  2.30022E-16  8.21425E+00 -5.75848E-09  1.0E-07
  6.000E-01  2.74153E-05  2.29723E-16  8.20355E+00 -6.11299E-09  1.0E-07
  6.250E-01  2.97475E-05  2.29412E-16  8.19245E+00 -6.47991E-09  1.0E-07
  6.500E-01  3.21749E-05  2.29091E-16  8.18098E+00 -6.85958E-09  1.0E-07
  6.750E-01  3.46974E-05  2.28759E-16  8.16914E+00 -7.25231E-09  1.0E-07
  7.000E-01  3.73152E-05  2.28417E-16  8.15693E+00 -7.65841E-09  1.0E-07
  7.250E-01  4.00281E-05  2.28066E-16  8.14437E+00 -8.07813E-09  1.0E-07
  7.500E-01  4.28362E-05  2.27704E-16  8.13146E+00 -8.51175E-09  1.0E-07
  7.750E-01  4.57395E-05  2.27333E-16  8.11821E+00 -8.95947E-09  1.0E-07
  8.000E-01  4.87380E-05  2.26953E-16  8.10464E+00 -9.42152E-09  1.0E-07
  8.250E-01  5.18317E-05  2.26564E-16  8.09075E+00 -9.89807E-09  1.0E-07
  8.500E-01  5.50205E-05  2.26166E-16  8.07655E+00 -1.03893E-08  1.0E-07
  8.750E-01  5.83045E-05  2.25760E-16  8.06204E+00 -1.08953E-08  1.0E-07
  9.000E-01  6.16838E-05  2.25346E-16  8.04725E+00 -1.14162E-08  1.0E-07
  9.250E-01  6.51582E-05  2.24924E-16  8.03218E+00 -1.19521E-08  1.0E-07
  9.500E-01  6.87277E-05  2.24494E-16  8.01683E+00 -1.25031E-08  1.0E-07
  9.750E-01  7.23925E-05  2.24057E-16  8.00122E+00 -1.30691E-08  1.0E-07
  1.000E+00  7.61524E-05  2.23613E-16  7.98536E+00 -1.36503E-08  1.0E-07
  1.100E+00  9.21439E-05  2.21771E-16  7.91957E+00 -1.61252E-08  1.0E-07
  1.200E+00  1.09658E-04  2.19837E-16  7.85052E+00 -1.88364E-08  1.0E-07
  1.300E+00  1.28695E-04  2.17829E-16  7.77882E+00 -2.17729E-08  1.0E-07
  1.400E+00  1.49255E-04  2.15763E-16  7.70505E+00 -2.49183E-08  1.0E-07
  1.500E+00  1.71338E-04  2.13656E-16  7.62979E+00 -2.82510E-08  1.0E-07
  1.600E+00  1.94942E-04  2.11521E-16  7.55355E+00 -3.17453E-08  1.0E-07
  1.700E+00  2.20070E-04  2.09372E-16  7.47681E+00 -3.53721E-08  1.0E-07
  1.800E+00  2.46720E-04  2.07221E-16  7.40001E+00 -3.91005E-08  1.0E-07
  1.900E+00  2.74892E-04  2.05079E-16  7.32351E+00 -4.28989E-08  1.0E-07
  2.000E+00  3.04586E-04  2.02954E-16  7.24764E+00 -4.67360E-08  1.0E-07
  2.100E+00  3.35803E-04  2.00854E-16  7.17264E+00 -5.05825E-08  1.0E-07
  2.200E+00  3.68542E-04  1.98784E-16  7.09872E+00 -5.44123E-08  1.0E-07
  2.300E+00  4.02802E-04  1.96749E-16  7.02602E+00 -5.82033E-08  1.0E-07
  2.400E+00  4.38585E-04  1.94750E-16  6.95465E+00 -6.19387E-08  1.0E-07
  2.500E+00  4.75889E-04  1.92790E-16  6.88466E+00 -6.56074E-08  1.0E-07
  2.600E+00  5.14715E-04  1.90869E-16  6.81605E+00 -6.92045E-08  1.0E-07
  2.700E+00  5.55063E-04  1.88986E-16  6.74881E+00 -7.27314E-08  1.0E-07
  2.800E+00  5.96931E-04  1.87139E-16  6.68287E+00 -7.61958E-08  1.0E-07
  2.900E+00  6.40321E-04  1.85328E-16  6.61817E+00 -7.96110E-08  1.0E-07
  3.000E+00  6.85233E-04  1.83548E-16  6.55460E+00 -8.29955E-08  1.0E-07
  3.100E+00  7.31665E-04  1.81797E-16  6.49208E+00 -8.63720E-08  1.0E-07
  3.200E+00  7.79618E-04  1.80072E-16  6.43049E+00 -8.97660E-08  1.0E-07
  3.300E+00  8.29092E-04  1.78371E-16  6.36973E+00 -9.32054E-08  1.0E-07
  3.400E+00  8.80086E-04  1.76689E-16  6.30969E+00 -9.67185E-08  1.0E-07
  3.500E+00  9.32601E-04  1.75026E-16  6.25028E+00 -1.00333E-07  1.0E-07
  3.600E+00  9.86636E-04  1.73378E-16  6.19143E+00 -1.04075E-07  1.0E-07
  3.700E+00  1.04219E-03  1.71743E-16  6.13305E+00 -1.07968E-07  1.0E-07
  3.800E+00  1.09927E-03  1.70120E-16  6.07510E+00 -1.12032E-07  1.0E-07
  3.900E+00  1.15786E-03  1.68508E-16  6.01753E+00 -1.16282E-07  1.0E-07
  4.000E+00  1.21797E-03  1.66906E-16  5.96033E+00 -1.20727E-07  1.0E-07
  4.100E+00  1.27961E-03  1.65314E-16  5.90347E+00 -1.25373E-07  1.0E-07
  4.200E+00  1.34276E-03  1.63732E-16  5.84698E+00 -1.30220E-07  1.0E-07
  4.300E+00  1.40743E-03  1.62160E-16  5.79084E+00 -1.35260E-07  1.0E-07
  4.400E+00  1.47362E-03  1.60599E-16  5.73510E+00 -1.40485E-07  1.0E-07
  4.500E+00  1.54133E-03  1.59050E-16  5.67978E+00 -1.45878E-07  1.0E-07
  4.600E+00  1.61056E-03  1.57513E-16  5.62490E+00 -1.51423E-07  1.0E-07
  4.700E+00  1.68131E-03  1.55990E-16  5.57051E+00 -1.57098E-07  1.0E-07
  4.800E+00  1.75357E-03  1.54482E-16  5.51664E+00 -1.62882E-07  1.0E-07
  4.900E+00  1.82735E-03  1.52989E-16  5.46332E+00 -1.68752E-07  1.0E-07
  5.000E+00  1.90265E-03  1.51512E-16  5.41058E+00 -1.74687E-07  1.0E-07
  5.100E+00  1.97947E-03  1.50052E-16  5.35845E+00 -1.80668E-07  1.0E-07
  5.200E+00  2.05780E-03  1.48609E-16  5.30694E+00 -1.86677E-07  1.0E-07
  5.300E+00  2.13765E-03  1.47185E-16  5.25606E+00 -1.92701E-07  1.0E-07
  5.400E+00  2.21902E-03  1.45778E-16  5.20582E+00 -1.98732E-07  1.0E-07
  5.500E+00  2.30190E-03  1.44389E-16  5.15621E+00 -2.04764E-07  1.0E-07
  5.600E+00  2.38630E-03  1.43017E-16  5.10723E+00 -2.10798E-07  1.0E-07
  5.700E+00  2.47222E-03  1.41662E-16  5.05886E+00 -2.16839E-07  1.0E-07
  5.800E+00  2.55965E-03  1.40324E-16  5.01107E+00 -2.22897E-07  1.0E-07
  5.900E+00  2.64859E-03  1.39002E-16  4.96385E+00 -2.28984E-07  1.0E-07
  6.000E+00  2.73905E-03  1.37695E-16  4.91716E+00 -2.35117E-07  1.0E-07
  6.100E+00  2.83103E-03  1.36402E-16  4.87099E+00 -2.41315E-07  1.0E-07
  6.200E+00  2.92452E-03  1.35122E-16  4.82530E+00 -2.47598E-07  1.0E-07
  6.300E+00  3.01952E-03  1.33855E-16  4.78006E+00 -2.53989E-07  1.0E-07
  6.400E+00  3.11604E-03  1.32601E-16  4.73526E+00 -2.60506E-07  1.0E-07
  6.500E+00  3.21407E-03  1.31357E-16  4.69086E+00 -2.67170E-07  1.0E-07
  6.600E+00  3.31362E-03  1.30125E-16  4.64685E+00 -2.73996E-07  1.0E-07
  6.700E+00  3.41468E-03  1.28903E-16  4.60321E+00 -2.80999E-07  1.0E-07
  6.800E+00  3.51725E-03  1.27691E-16  4.55993E+00 -2.88189E-07  1.0E-07
  6.900E+00  3.62133E-03  1.26489E-16  4.51701E+00 -2.95571E-07  1.0E-07
  7.000E+00  3.72692E-03  1.25297E-16  4.47444E+00 -3.03147E-07  1.0E-07
  7.100E+00  3.83403E-03  1.24115E-16  4.43222E+00 -3.10914E-07  1.0E-07
  7.200E+00  3.94265E-03  1.22943E-16  4.39036E+00 -3.18866E-07  1.0E-07
  7.300E+00  4.05278E-03  1.21780E-16  4.34885E+00 -3.26991E-07  1.0E-07
  7.400E+00  4.16442E-03  1.20628E-16  4.30772E+00 -3.35277E-07  1.0E-07
  7.500E+00  4.27757E-03  1.19487E-16  4.26696E+00 -3.43708E-07  1.0E-07
  7.600E+00  4.39223E-03  1.18357E-16  4.22659E+00 -3.52265E-07  1.0E-07
  7.700E+00  4.50840E-03  1.17237E-16  4.18661E+00 -3.60931E-07  1.0E-07
  7.800E+00  4.62608E-03  1.16129E-16  4.14704E+00 -3.69688E-07  1.0E-07
  7.900E+00  4.74527E-03  1.15032E-16  4.10787E+00 -3.78519E-07  1.0E-07
  8.000E+00  4.86597E-03  1.13947E-16  4.06912E+00 -3.87411E-07  1.0E-07
  8.100E+00  4.98817E-03  1.12874E-16  4.03079E+00 -3.96350E-07  1.0E-07
  8.200E+00  5.11188E-03  1.11812E-16  3.99287E+00 -4.05330E-07  1.0E-07
  8.300E+00  5.23711E-03  1.10761E-16  3.95536E+00 -4.14346E-07  1.0E-07
  8.400E+00  5.36383E-03  1.09723E-16  3.91826E+00 -4.23398E-07  1.0E-07
  8.500E+00  5.49207E-03  1.08695E-16  3.88157E+00 -4.32488E-07  1.0E-07
  8.600E+00  5.62181E-03  1.07678E-16  3.84526E+00 -4.41625E-07  1.0E-07
  8.700E+00  5.75306E-03  1.06672E-16  3.80934E+00 -4.50820E-07  1.0E-07
  8.800E+00  5.88581E-03  1.05677E-16  3.77378E+00 -4.60087E-07  1.0E-07
  8.900E+00  6.02007E-03  1.04691E-16  3.73858E+00 -4.69442E-07  1.0E-07
  9.000E+00  6.15583E-03  1.03715E-16  3.70373E+00 -4.78903E-07  1.0E-07
  9.100E+00  6.29310E-03  1.02748E-16  3.66921E+00 -4.88489E-07  1.0E-07
  9.200E+00  6.43187E-03  1.01791E-16  3.63501E+00 -4.98218E-07  1.0E-07
  9.300E+00  6.57214E-03  1.00841E-16  3.60111E+00 -5.08107E-07  1.0E-07
  9.400E+00  6.71392E-03  9.99008E-17  3.56752E+00 -5.18170E-07  1.0E-07
  9.500E+00  6.85720E-03  9.89683E-17  3.53422E+00 -5.28420E-07  1.0E-07
  9.600E+00  7.00198E-03  9.80438E-17  3.50121E+00 -5.38867E-07  1.0E-07
  9.700E+00  7.14827E-03  9.71271E-17  3.46847E+00 -5.49516E-07  1.0E-07
  9.800E+00  7.29605E-03  9.62183E-17  3.43602E+00 -5.60369E-07  1.0E-07
  9.900E+00  7.44534E-03  9.53173E-17  3.40384E+00 -5.71423E-07  1.0E-07
  1.000E+01  7.59612E-03  9.44240E-17  3.37194E+00 -5.82672E-07  1.0E-07
  1.025E+01  7.97965E-03  9.22252E-17  3.29342E+00 -6.11582E-07  1.0E-07
  1.050E+01  8.37255E-03  9.00764E-17  3.21669E+00 -6.41436E-07  1.0E-07
  1.075E+01  8.77480E-03  8.79788E-17  3.14178E+00 -6.71986E-07  1.0E-07
  1.100E+01  9.18641E-03  8.59329E-17  3.06872E+00 -7.03025E-07  1.0E-07
  1.125E+01  9.60736E-03  8.39383E-17  2.99749E+00 -7.34451E-07  1.0E-07
  1.150E+01  1.00376E-02  8.19931E-17  2.92803E+00 -7.66305E-07  1.0E-07
  1.175E+01  1.04773E-02  8.00948E-17  2.86024E+00 -7.98758E-07  1.0E-07
  1.200E+01  1.09262E-02  7.82404E-17  2.79402E+00 -8.32063E-07  1.0E-07
  1.225E+01  1.13844E-02  7.64272E-17  2.72927E+00 -8.66477E-07  1.0E-07
  1.250E+01  1.18520E-02  7.46531E-17  2.66591E+00 -9.02190E-07  1.0E-07
  1.275E+01  1.23288E-02  7.29170E-17  2.60391E+00 -9.39267E-07  1.0E-07
  1.300E+01  1.28150E-02  7.12185E-17  2.54326E+00 -9.77635E-07  1.0E-07
  1.325E+01  1.33104E-02  6.95579E-17  2.48396E+00 -1.01711E-06  1.0E-07
  1.350E+01  1.38150E-02  6.79356E-17  2.42602E+00 -1.05744E-06  1.0E-07
