 #
 # Subroutine ELSEPA. Elastic scattering of electrons and positrons
 #                    by neutral atoms and positive ions
 #
 # Projectile: electron
 # Kinetic energy = 1.00000E+03 eV = 3.67493E+01 a.u.
 #
 # Element: Au,  Z =  79,  atomic weight = 1.96967E+02 g/mol
 #
 # Nuclear model: Fermi distribution
 #                Average radius = 6.22560E-13 cm
 #                Skin thickness = 5.46000E-14 cm
 #
 # Number of electrons = 79
 #
 # Electron density: analytical DHFS model
 #                   A1 =  2.28909D-01 ,   ALPHA1 = 2.28644D+01
 #                   A2 =  6.11402D-01 ,   ALPHA2 = 3.69138D+00
 #                   A3 =  1.59689D-01 ,   ALPHA3 = 1.48856D+00
 #                   Volume integral = 7.90000E+01
 #
 # Muffin-tin model: Rmt = 1.44000E-08 cm
 #
 # Furness-McCarthy exchange potential
 #
 # Total elastic cross section = 2.02118E-16 cm**2 = 7.21776E+00 a0**2
 # 1st transport cross section = 7.09347E-17 cm**2 = 2.53312E+00 a0**2
 # 2nd transport cross section = 6.07009E-17 cm**2 = 2.16767E+00 a0**2
 #
 #
 # Differential cross section:                       MU=(1-COS(THETA))/2
 #
 #  THETA        MU          DCS          DCS        Sherman      error
 #  (deg)                 (cm**2/sr)   (a0**2/sr)    function
 #----------------------------------------------------------------------
  0.000E+00  0.00000E+00  1.36346E-15  4.86900E+01  0.00000E+00  1.0E-07
  1.000E-04  7.61557E-13  1.36346E-15  4.86900E+01 -7.15619E-09  1.0E-07
  1.250E-04  1.18994E-12  1.36346E-15  4.86900E+01 -8.94524E-09  1.0E-07
  1.500E-04  1.71346E-12  1.36346E-15  4.86900E+01 -1.07343E-08  1.0E-07
  1.750E-04  2.33225E-12  1.36346E-15  4.86900E+01 -1.25233E-08  1.0E-07
  2.000E-04  3.04617E-12  1.36346E-15  4.86900E+01 -1.43124E-08  1.0E-07
  2.250E-04  3.85530E-12  1.36346E-15  4.86900E+01 -1.61014E-08  1.0E-07
  2.500E-04  4.75964E-12  1.36346E-15  4.86900E+01 -1.78905E-08  1.0E-07
  2.750E-04  5.75917E-12  1.36346E-15  4.86900E+01 -1.96795E-08  1.0E-07
  3.000E-04  6.85391E-12  1.36346E-15  4.86900E+01 -2.14686E-08  1.0E-07
  3.250E-04  8.04379E-12  1.36346E-15  4.86900E+01 -2.32576E-08  1.0E-07
  3.500E-04  9.32893E-12  1.36346E-15  4.86900E+01 -2.50467E-08  1.0E-07
  3.750E-04  1.07092E-11  1.36346E-15  4.86900E+01 -2.68357E-08  1.0E-07
  4.000E-04  1.21847E-11  1.36346E-15  4.86900E+01 -2.86248E-08  1.0E-07
  4.250E-04  1.37554E-11  1.36346E-15  4.86900E+01 -3.04138E-08  1.0E-07
  4.500E-04  1.54213E-11  1.36346E-15  4.86900E+01 -3.22029E-08  1.0E-07
  4.750E-04  1.71823E-11  1.36346E-15  4.86900E+01 -3.39919E-08  1.0E-07
  5.000E-04  1.90386E-11  1.36346E-15  4.86900E+01 -3.57810E-08  1.0E-07
  5.250E-04  2.09900E-11  1.36346E-15  4.86900E+01 -3.75700E-08  1.0E-07
  5.500E-04  2.30367E-11  1.36346E-15  4.86900E+01 -3.93590E-08  1.0E-07
  5.750E-04  2.51785E-11  1.36346E-15  4.86900E+01 -4.11481E-08  1.0E-07
  6.000E-04  2.74156E-11  1.36346E-15  4.86900E+01 -4.29371E-08  1.0E-07
  6.250E-04  2.97478E-11  1.36346E-15  4.86900E+01 -4.47262E-08  1.0E-07
  6.500E-04  3.21752E-11  1.36346E-15  4.86900E+01 -4.65152E-08  1.0E-07
  6.750E-04  3.46979E-11  1.36346E-15  4.86900E+01 -4.83043E-08  1.0E-07
  7.000E-04  3.73157E-11  1.36346E-15  4.86900E+01 -5.00933E-08  1.0E-07
  7.250E-04  4.00286E-11  1.36346E-15  4.86900E+01 -5.18824E-08  1.0E-07
  7.500E-04  4.28368E-11  1.36346E-15  4.86900E+01 -5.36714E-08  1.0E-07
  7.750E-04  4.57402E-11  1.36346E-15  4.86900E+01 -5.54605E-08  1.0E-07
  8.000E-04  4.87388E-11  1.36346E-15  4.86900E+01 -5.72495E-08  1.0E-07
  8.250E-04  5.18325E-11  1.36346E-15  4.86900E+01 -5.90386E-08  1.0E-07
  8.500E-04  5.50215E-11  1.36346E-15  4.86900E+01 -6.08276E-08  1.0E-07
  8.750E-04  5.83057E-11  1.36346E-15  4.86900E+01 -6.26167E-08  1.0E-07
  9.000E-04  6.16850E-11  1.36346E-15  4.86900E+01 -6.44057E-08  1.0E-07
  9.250E-04  6.51595E-11  1.36346E-15  4.86900E+01 -6.61948E-08  1.0E-07
  9.500E-04  6.87293E-11  1.36346E-15  4.86900E+01 -6.79838E-08  1.0E-07
  9.750E-04  7.23943E-11  1.36346E-15  4.86900E+01 -6.97729E-08  1.0E-07
  1.000E-03  7.61544E-11  1.36346E-15  4.86900E+01 -7.15619E-08  1.0E-07
  1.250E-03  1.18991E-10  1.36346E-15  4.86900E+01 -8.94524E-08  1.0E-07
  1.500E-03  1.71347E-10  1.36346E-15  4.86900E+01 -1.07343E-07  1.0E-07
  1.750E-03  2.33223E-10  1.36346E-15  4.86900E+01 -1.25233E-07  1.0E-07
  2.000E-03  3.04617E-10  1.36346E-15  4.86900E+01 -1.43124E-07  1.0E-07
  2.250E-03  3.85531E-10  1.36346E-15  4.86900E+01 -1.61014E-07  1.0E-07
  2.500E-03  4.75965E-10  1.36346E-15  4.86900E+01 -1.78905E-07  1.0E-07
  2.750E-03  5.75917E-10  1.36346E-15  4.86900E+01 -1.96795E-07  1.0E-07
  3.000E-03  6.85389E-10  1.36346E-15  4.86900E+01 -2.14686E-07  1.0E-07
  3.250E-03  8.04380E-10  1.36346E-15  4.86900E+01 -2.32576E-07  1.0E-07
  3.500E-03  9.32891E-10  1.36346E-15  4.86900E+01 -2.50467E-07  1.0E-07
  3.750E-03  1.07092E-09  1.36346E-15  4.86900E+01 -2.68357E-07  1.0E-07
  4.000E-03  1.21847E-09  1.36346E-15  4.86900E+01 -2.86248E-07  1.0E-07
  4.250E-03  1.37554E-09  1.36346E-15  4.86900E+01 -3.04138E-07  1.0E-07
  4.500E-03  1.54213E-09  1.36346E-15  4.86900E+01 -3.22029E-07  1.0E-07
  4.750E-03  1.71823E-09  1.36346E-15  4.86900E+01 -3.39919E-07  1.0E-07
  5.000E-03  1.90386E-09  1.36346E-15  4.86900E+01 -3.57810E-07  1.0E-07
  5.250E-03  2.09900E-09  1.36346E-15  4.86900E+01 -3.75700E-07  1.0E-07
  5.500E-03  2.30367E-09  1.36346E-15  4.86900E+01 -3.93590E-07  1.0E-07
  5.750E-03  2.51785E-09  1.36346E-15  4.86900E+01 -4.11481E-07  1.0E-07
  6.000E-03  2.74156E-09  1.36346E-15  4.86900E+01 -4.29371E-07  1.0E-07
  6.250E-03  2.97478E-09  1.36346E-15  4.86900E+01 -4.47262E-07  1.0E-07
  6.500E-03  3.21752E-09  1.36346E-15  4.86900E+01 -4.65152E-07  1.0E-07
  6.750E-03  3.46978E-09  1.36346E-15  4.86900E+01 -4.83043E-07  1.0E-07
  7.000E-03  3.73156E-09  1.36346E-15  4.86900E+01 -5.00933E-07  1.0E-07
  7.250E-03  4.00286E-09  1.36346E-15  4.86900E+01 -5.18824E-07  1.0E-07
  7.500E-03  4.28368E-09  1.36346E-15  4.86900E+01 -5.36714E-07  1.0E-07
  7.750E-03  4.57402E-09  1.36346E-15  4.86900E+01 -5.54605E-07  1.0E-07
  8.000E-03  4.87388E-09  1.36346E-15  4.86900E+01 -5.72495E-07  1.0E-07
  8.250E-03  5.18326E-09  1.36346E-15  4.86900E+01 -5.90386E-07  1.0E-07
  8.500E-03  5.50215E-09  1.36346E-15  4.86900E+01 -6.08276E-07  1.0E-07
  8.750E-03  5.83057E-09  1.36346E-15  4.86900E+01 -6.26167E-07  1.0E-07
  9.000E-03  6.16850E-09  1.36346E-15  4.86900E+01 -6.44057E-07  1.0E-07
  9.250E-03  6.51596E-09  1.36346E-15  4.86900E+01 -6.61948E-07  1.0E-07
  9.500E-03  6.87293E-09  1.36346E-15  4.86900E+01 -6.79838E-07  1.0E-07
  9.750E-03  7.23942E-09  1.36346E-15  4.86900E+01 -6.97729E-07  1.0E-07
  1.000E-02  7.61544E-09  1.36346E-15  4.86900E+01 -7.15619E-07  1.0E-07
  1.250E-02  1.18991E-08  1.36346E-15  4.86899E+01 -8.94524E-07  1.0E-07
  1.500E-02  1.71347E-08  1.36346E-15  4.86899E+01 -1.07343E-06  1.0E-07
  1.750E-02  2.33223E-08  1.36345E-15  4.86899E+01 -1.25233E-06  1.0E-07
  2.000E-02  3.04617E-08  1.36345E-15  4.86898E+01 -1.43124E-06  1.0E-07
  2.250E-02  3.85531E-08  1.36345E-15  4.86897E+01 -1.61014E-06  1.0E-07
  2.500E-02  4.75965E-08  1.36345E-15  4.86897E+01 -1.78905E-06  1.0E-07
  2.750E-02  5.75917E-08  1.36345E-15  4.86896E+01 -1.96796E-06  1.0E-07
  3.000E-02  6.85389E-08  1.36345E-15  4.86895E+01 -2.14686E-06  1.0E-07
  3.250E-02  8.04380E-08  1.36344E-15  4.86894E+01 -2.32577E-06  1.0E-07
  3.500E-02  9.32891E-08  1.36344E-15  4.86893E+01 -2.50467E-06  1.0E-07
  3.750E-02  1.07092E-07  1.36344E-15  4.86892E+01 -2.68358E-06  1.0E-07
  4.000E-02  1.21847E-07  1.36343E-15  4.86891E+01 -2.86248E-06  1.0E-07
  4.250E-02  1.37554E-07  1.36343E-15  4.86890E+01 -3.04139E-06  1.0E-07
  4.500E-02  1.54213E-07  1.36343E-15  4.86889E+01 -3.22030E-06  1.0E-07
  4.750E-02  1.71823E-07  1.36342E-15  4.86887E+01 -3.39921E-06  1.0E-07
  5.000E-02  1.90386E-07  1.36342E-15  4.86886E+01 -3.57811E-06  1.0E-07
  5.250E-02  2.09900E-07  1.36342E-15  4.86884E+01 -3.75702E-06  1.0E-07
  5.500E-02  2.30367E-07  1.36341E-15  4.86883E+01 -3.93593E-06  1.0E-07
  5.750E-02  2.51785E-07  1.36341E-15  4.86881E+01 -4.11484E-06  1.0E-07
  6.000E-02  2.74156E-07  1.36340E-15  4.86880E+01 -4.29374E-06  1.0E-07
  6.250E-02  2.97478E-07  1.36340E-15  4.86878E+01 -4.47265E-06  1.0E-07
  6.500E-02  3.21752E-07  1.36339E-15  4.86876E+01 -4.65156E-06  1.0E-07
  6.750E-02  3.46978E-07  1.36339E-15  4.86874E+01 -4.83047E-06  1.0E-07
  7.000E-02  3.73156E-07  1.36338E-15  4.86872E+01 -5.00938E-06  1.0E-07
  7.250E-02  4.00286E-07  1.36337E-15  4.86870E+01 -5.18829E-06  1.0E-07
  7.500E-02  4.28368E-07  1.36337E-15  4.86868E+01 -5.36720E-06  1.0E-07
  7.750E-02  4.57402E-07  1.36336E-15  4.86866E+01 -5.54611E-06  1.0E-07
  8.000E-02  4.87388E-07  1.36336E-15  4.86863E+01 -5.72502E-06  1.0E-07
  8.250E-02  5.18325E-07  1.36335E-15  4.86861E+01 -5.90393E-06  1.0E-07
  8.500E-02  5.50215E-07  1.36334E-15  4.86859E+01 -6.08285E-06  1.0E-07
  8.750E-02  5.83057E-07  1.36334E-15  4.86856E+01 -6.26176E-06  1.0E-07
  9.000E-02  6.16850E-07  1.36333E-15  4.86854E+01 -6.44067E-06  1.0E-07
  9.250E-02  6.51596E-07  1.36332E-15  4.86851E+01 -6.61958E-06  1.0E-07
  9.500E-02  6.87293E-07  1.36331E-15  4.86848E+01 -6.79850E-06  1.0E-07
  9.750E-02  7.23942E-07  1.36331E-15  4.86846E+01 -6.97741E-06  1.0E-07
  1.000E-01  7.61543E-07  1.36330E-15  4.86843E+01 -7.15633E-06  1.0E-07
  1.250E-01  1.18991E-06  1.36321E-15  4.86810E+01 -8.94551E-06  1.0E-07
  1.500E-01  1.71347E-06  1.36310E-15  4.86771E+01 -1.07347E-05  1.0E-07
  1.750E-01  2.33223E-06  1.36297E-15  4.86724E+01 -1.25241E-05  1.0E-07
  2.000E-01  3.04617E-06  1.36282E-15  4.86670E+01 -1.43135E-05  1.0E-07
  2.250E-01  3.85531E-06  1.36264E-15  4.86609E+01 -1.61030E-05  1.0E-07
  2.500E-01  4.75964E-06  1.36245E-15  4.86541E+01 -1.78926E-05  1.0E-07
  2.750E-01  5.75916E-06  1.36224E-15  4.86465E+01 -1.96824E-05  1.0E-07
  3.000E-01  6.85388E-06  1.36201E-15  4.86383E+01 -2.14723E-05  1.0E-07
  3.250E-01  8.04378E-06  1.36176E-15  4.86293E+01 -2.32623E-05  1.0E-07
  3.500E-01  9.32888E-06  1.36149E-15  4.86196E+01 -2.50526E-05  1.0E-07
  3.750E-01  1.07092E-05  1.36119E-15  4.86092E+01 -2.68429E-05  1.0E-07
  4.000E-01  1.21846E-05  1.36088E-15  4.85980E+01 -2.86335E-05  1.0E-07
  4.250E-01  1.37553E-05  1.36055E-15  4.85862E+01 -3.04243E-05  1.0E-07
  4.500E-01  1.54212E-05  1.36020E-15  4.85736E+01 -3.22154E-05  1.0E-07
  4.750E-01  1.71822E-05  1.35983E-15  4.85603E+01 -3.40066E-05  1.0E-07
  5.000E-01  1.90385E-05  1.35944E-15  4.85463E+01 -3.57981E-05  1.0E-07
  5.250E-01  2.09899E-05  1.35902E-15  4.85316E+01 -3.75898E-05  1.0E-07
  5.500E-01  2.30365E-05  1.35859E-15  4.85162E+01 -3.93818E-05  1.0E-07
  5.750E-01  2.51783E-05  1.35814E-15  4.85001E+01 -4.11741E-05  1.0E-07
  6.000E-01  2.74153E-05  1.35767E-15  4.84833E+01 -4.29667E-05  1.0E-07
  6.250E-01  2.97475E-05  1.35718E-15  4.84657E+01 -4.47596E-05  1.0E-07
  6.500E-01  3.21749E-05  1.35667E-15  4.84475E+01 -4.65528E-05  1.0E-07
  6.750E-01  3.46974E-05  1.35614E-15  4.84285E+01 -4.83464E-05  1.0E-07
  7.000E-01  3.73152E-05  1.35558E-15  4.84088E+01 -5.01402E-05  1.0E-07
  7.250E-01  4.00281E-05  1.35501E-15  4.83884E+01 -5.19345E-05  1.0E-07
  7.500E-01  4.28362E-05  1.35442E-15  4.83674E+01 -5.37291E-05  1.0E-07
  7.750E-01  4.57395E-05  1.35381E-15  4.83456E+01 -5.55240E-05  1.0E-07
  8.000E-01  4.87380E-05  1.35318E-15  4.83231E+01 -5.73194E-05  1.0E-07
  8.250E-01  5.18317E-05  1.35253E-15  4.82999E+01 -5.91152E-05  1.0E-07
  8.500E-01  5.50205E-05  1.35186E-15  4.82760E+01 -6.09114E-05  1.0E-07
  8.750E-01  5.83045E-05  1.35118E-15  4.82514E+01 -6.27080E-05  1.0E-07
  9.000E-01  6.16838E-05  1.35047E-15  4.82261E+01 -6.45051E-05  1.0E-07
  9.250E-01  6.51582E-05  1.34974E-15  4.82001E+01 -6.63026E-05  1.0E-07
  9.500E-01  6.87277E-05  1.34899E-15  4.81734E+01 -6.81005E-05  1.0E-07
  9.750E-01  7.23925E-05  1.34823E-15  4.81460E+01 -6.98990E-05  1.0E-07
  1.000E+00  7.61524E-05  1.34744E-15  4.81179E+01 -7.16979E-05  1.0E-07
  1.100E+00  9.21439E-05  1.34410E-15  4.79987E+01 -7.88988E-05  1.0E-07
  1.200E+00  1.09658E-04  1.34045E-15  4.78684E+01 -8.61083E-05  1.0E-07
  1.300E+00  1.28695E-04  1.33650E-15  4.77272E+01 -9.33272E-05  1.0E-07
  1.400E+00  1.49255E-04  1.33224E-15  4.75753E+01 -1.00556E-04  1.0E-07
  1.500E+00  1.71338E-04  1.32769E-15  4.74126E+01 -1.07796E-04  1.0E-07
  1.600E+00  1.94942E-04  1.32284E-15  4.72394E+01 -1.15047E-04  1.0E-07
  1.700E+00  2.20070E-04  1.31769E-15  4.70557E+01 -1.22310E-04  1.0E-07
  1.800E+00  2.46720E-04  1.31226E-15  4.68616E+01 -1.29586E-04  1.0E-07
  1.900E+00  2.74892E-04  1.30654E-15  4.66574E+01 -1.36875E-04  1.0E-07
  2.000E+00  3.04586E-04  1.30054E-15  4.64432E+01 -1.44178E-04  1.0E-07
  2.100E+00  3.35803E-04  1.29427E-15  4.62191E+01 -1.51495E-04  1.0E-07
  2.200E+00  3.68542E-04  1.28772E-15  4.59853E+01 -1.58826E-04  1.0E-07
  2.300E+00  4.02802E-04  1.28090E-15  4.57419E+01 -1.66173E-04  1.0E-07
  2.400E+00  4.38585E-04  1.27383E-15  4.54891E+01 -1.73535E-04  1.0E-07
  2.500E+00  4.75889E-04  1.26649E-15  4.52272E+01 -1.80912E-04  1.0E-07
  2.600E+00  5.14715E-04  1.25890E-15  4.49562E+01 -1.88305E-04  1.0E-07
  2.700E+00  5.55063E-04  1.25107E-15  4.46764E+01 -1.95715E-04  1.0E-07
  2.800E+00  5.96931E-04  1.24299E-15  4.43879E+01 -2.03141E-04  1.0E-07
  2.900E+00  6.40321E-04  1.23467E-15  4.40910E+01 -2.10583E-04  1.0E-07
  3.000E+00  6.85233E-04  1.22613E-15  4.37859E+01 -2.18041E-04  1.0E-07
  3.100E+00  7.31665E-04  1.21736E-15  4.34728E+01 -2.25516E-04  1.0E-07
  3.200E+00  7.79618E-04  1.20838E-15  4.31519E+01 -2.33007E-04  1.0E-07
  3.300E+00  8.29092E-04  1.19918E-15  4.28234E+01 -2.40514E-04  1.0E-07
  3.400E+00  8.80086E-04  1.18977E-15  4.24875E+01 -2.48037E-04  1.0E-07
  3.500E+00  9.32601E-04  1.18017E-15  4.21445E+01 -2.55575E-04  1.0E-07
  3.600E+00  9.86636E-04  1.17037E-15  4.17946E+01 -2.63128E-04  1.0E-07
  3.700E+00  1.04219E-03  1.16038E-15  4.14380E+01 -2.70696E-04  1.0E-07
  3.800E+00  1.09927E-03  1.15022E-15  4.10750E+01 -2.78277E-04  1.0E-07
  3.900E+00  1.15786E-03  1.13988E-15  4.07058E+01 -2.85871E-04  1.0E-07
  4.000E+00  1.21797E-03  1.12937E-15  4.03306E+01 -2.93477E-04  1.0E-07
  4.100E+00  1.27961E-03  1.11871E-15  3.99497E+01 -3.01094E-04  1.0E-07
  4.200E+00  1.34276E-03  1.10789E-15  3.95634E+01 -3.08721E-04  1.0E-07
  4.300E+00  1.40743E-03  1.09692E-15  3.91718E+01 -3.16357E-04  1.0E-07
  4.400E+00  1.47362E-03  1.08582E-15  3.87752E+01 -3.24000E-04  1.0E-07
  4.500E+00  1.54133E-03  1.07458E-15  3.83740E+01 -3.31648E-04  1.0E-07
  4.600E+00  1.61056E-03  1.06322E-15  3.79682E+01 -3.39301E-04  1.0E-07
  4.700E+00  1.68131E-03  1.05174E-15  3.75582E+01 -3.46956E-04  1.0E-07
  4.800E+00  1.75357E-03  1.04015E-15  3.71443E+01 -3.54612E-04  1.0E-07
  4.900E+00  1.82735E-03  1.02845E-15  3.67266E+01 -3.62265E-04  1.0E-07
  5.000E+00  1.90265E-03  1.01666E-15  3.63055E+01 -3.69914E-04  1.0E-07
  5.100E+00  1.97947E-03  1.00477E-15  3.58812E+01 -3.77556E-04  1.0E-07
  5.200E+00  2.05780E-03  9.92809E-16  3.54538E+01 -3.85189E-04  1.0E-07
  5.300E+00  2.13765E-03  9.80767E-16  3.50238E+01 -3.92808E-04  1.0E-07
  5.400E+00  2.21902E-03  9.68655E-16  3.45913E+01 -4.00412E-04  1.0E-07
  5.500E+00  2.30190E-03  9.56482E-16  3.41566E+01 -4.07996E-04  1.0E-07
  5.600E+00  2.38630E-03  9.44253E-16  3.37199E+01 -4.15557E-04  1.0E-07
  5.700E+00  2.47222E-03  9.31976E-16  3.32815E+01 -4.23091E-04  1.0E-07
  5.800E+00  2.55965E-03  9.19657E-16  3.28416E+01 -4.30594E-04  1.0E-07
  5.900E+00  2.64859E-03  9.07303E-16  3.24004E+01 -4.38061E-04  1.0E-07
  6.000E+00  2.73905E-03  8.94921E-16  3.19582E+01 -4.45487E-04  1.0E-07
  6.100E+00  2.83103E-03  8.82517E-16  3.15153E+01 -4.52867E-04  1.0E-07
  6.200E+00  2.92452E-03  8.70098E-16  3.10718E+01 -4.60196E-04  1.0E-07
  6.300E+00  3.01952E-03  8.57669E-16  3.06279E+01 -4.67467E-04  1.0E-07
  6.400E+00  3.11604E-03  8.45239E-16  3.01840E+01 -4.74675E-04  1.0E-07
  6.500E+00  3.21407E-03  8.32812E-16  2.97403E+01 -4.81813E-04  1.0E-07
  6.600E+00  3.31362E-03  8.20395E-16  2.92968E+01 -4.88874E-04  1.0E-07
  6.700E+00  3.41468E-03  8.07993E-16  2.88540E+01 -4.95851E-04  1.0E-07
  6.800E+00  3.51725E-03  7.95614E-16  2.84119E+01 -5.02735E-04  1.0E-07
  6.900E+00  3.62133E-03  7.83262E-16  2.79708E+01 -5.09519E-04  1.0E-07
  7.000E+00  3.72692E-03  7.70943E-16  2.75309E+01 -5.16194E-04  1.0E-07
  7.100E+00  3.83403E-03  7.58664E-16  2.70924E+01 -5.22750E-04  1.0E-07
  7.200E+00  3.94265E-03  7.46428E-16  2.66554E+01 -5.29178E-04  1.0E-07
  7.300E+00  4.05278E-03  7.34243E-16  2.62203E+01 -5.35467E-04  1.0E-07
  7.400E+00  4.16442E-03  7.22112E-16  2.57871E+01 -5.41607E-04  1.0E-07
  7.500E+00  4.27757E-03  7.10041E-16  2.53560E+01 -5.47587E-04  1.0E-07
  7.600E+00  4.39223E-03  6.98034E-16  2.49273E+01 -5.53393E-04  1.0E-07
  7.700E+00  4.50840E-03  6.86098E-16  2.45010E+01 -5.59015E-04  1.0E-07
  7.800E+00  4.62608E-03  6.74235E-16  2.40774E+01 -5.64437E-04  1.0E-07
  7.900E+00  4.74527E-03  6.62452E-16  2.36566E+01 -5.69647E-04  1.0E-07
  8.000E+00  4.86597E-03  6.50751E-16  2.32387E+01 -5.74630E-04  1.0E-07
  8.100E+00  4.98817E-03  6.39138E-16  2.28240E+01 -5.79369E-04  1.0E-07
  8.200E+00  5.11188E-03  6.27616E-16  2.24126E+01 -5.83851E-04  1.0E-07
  8.300E+00  5.23711E-03  6.16190E-16  2.20045E+01 -5.88056E-04  1.0E-07
  8.400E+00  5.36383E-03  6.04862E-16  2.16000E+01 -5.91968E-04  1.0E-07
  8.500E+00  5.49207E-03  5.93637E-16  2.11992E+01 -5.95567E-04  1.0E-07
  8.600E+00  5.62181E-03  5.82519E-16  2.08021E+01 -5.98835E-04  1.0E-07
  8.700E+00  5.75306E-03  5.71509E-16  2.04090E+01 -6.01752E-04  1.0E-07
  8.800E+00  5.88581E-03  5.60612E-16  2.00198E+01 -6.04295E-04  1.0E-07
  8.900E+00  6.02007E-03  5.49831E-16  1.96348E+01 -6.06443E-04  1.0E-07
  9.000E+00  6.15583E-03  5.39168E-16  1.92540E+01 -6.08173E-04  1.0E-07
  9.100E+00  6.29310E-03  5.28626E-16  1.88776E+01 -6.09460E-04  1.0E-07
  9.200E+00  6.43187E-03  5.18208E-16  1.85055E+01 -6.10279E-04  1.0E-07
  9.300E+00  6.57214E-03  5.07916E-16  1.81380E+01 -6.10604E-04  1.0E-07
  9.400E+00  6.71392E-03  4.97752E-16  1.77750E+01 -6.10408E-04  1.0E-07
  9.500E+00  6.85720E-03  4.87718E-16  1.74167E+01 -6.09662E-04  1.0E-07
  9.600E+00  7.00198E-03  4.77816E-16  1.70631E+01 -6.08337E-04  1.0E-07
  9.700E+00  7.14827E-03  4.68049E-16  1.67143E+01 -6.06402E-04  1.0E-07
  9.800E+00  7.29605E-03  4.58417E-16  1.63704E+01 -6.03824E-04  1.0E-07
  9.900E+00  7.44534E-03  4.48922E-16  1.60313E+01 -6.00571E-04  1.0E-07
  1.000E+01  7.59612E-03  4.39565E-16  1.56972E+01 -5.96609E-04  1.0E-07
  1.025E+01  7.97965E-03  4.16787E-16  1.48837E+01 -5.83363E-04  1.0E-07
  1.050E+01  8.37255E-03  3.94896E-16  1.41020E+01 -5.64866E-04  1.0E-07
  1.075E+01  8.77480E-03  3.73903E-16  1.33523E+01 -5.40478E-04  1.0E-07
  1.100E+01  9.18641E-03  3.53811E-16  1.26348E+01 -5.09508E-04  1.0E-07
  1.125E+01  9.60736E-03  3.34622E-16  1.19496E+01 -4.71215E-04  1.0E-07
  1.150E+01  1.00376E-02  3.16330E-16  1.12963E+01 -4.24813E-04  1.0E-07
  1.175E+01  1.04773E-02  2.98928E-16  1.06749E+01 -3.69469E-04  1.0E-07
  1.200E+01  1.09262E-02  2.82402E-16  1.00848E+01 -3.04308E-04  1.0E-07
  1.225E+01  1.13844E-02  2.66739E-16  9.52541E+00 -2.28425E-04  1.0E-07
  1.250E+01  1.18520E-02  2.51918E-16  8.99615E+00 -1.40888E-04  1.0E-07
  1.275E+01  1.23288E-02  2.37919E-16  8.49623E+00 -4.07457E-05  1.0E-07
  1.300E+01  1.28150E-02  2.24717E-16  8.02478E+00  7.29531E-05  1.0E-07
  1.325E+01  1.33104E-02  2.12286E-16  7.58088E+00  2.01153E-04  1.0E-07
  1.350E+01  1.38150E-02  2.00600E-16  7.16355E+00  3.44772E-04  1.0E-07
  1.375E+01  1.43290E-02  1.89628E-16  6.77174E+00  5.04690E-04  1.0E-07
  1.400E+01  1.48521E-02  1.79341E-16  6.40437E+00  6.81725E-04  1.0E-07
  1.425E+01  1.53845E-02  1.69707E-16  6.06033E+00  8.76620E-04  1.0E-07
  1.450E+01  1.59262E-02  1.60694E-16  5.73850E+00  1.09002E-03  1.0E-07
  1.475E+01  1.64770E-02  1.52272E-16  5.43773E+00  1.32247E-03  1.0E-07
