 #
 # Subroutine ELSEPA. Elastic scattering of electrons and positrons
 #                    by neutral atoms and positive ions
 #
 # Projectile: electron
 # Kinetic energy = 1.60000E+04 eV = 5.87989E+02 a.u.
 #
 # Element: Au,  Z =  79,  atomic weight = 1.96967E+02 g/mol
 #
 # Nuclear model: Fermi distribution
 #                Average radius = 6.22560E-13 cm
 #                Skin thickness = 5.46000E-14 cm
 #
 # Number of electrons = 79
 #
 # Electron density: Read from file z_079.den   
 #                   Number of data points =  777
 #                   Volume integral = 7.90000E+01
 #
 # Furness-McCarthy exchange potential
 #
 # Total elastic cross section = 6.23100E-17 cm**2 = 2.22513E+00 a0**2
 # 1st transport cross section = 2.30674E-18 cm**2 = 8.23753E-02 a0**2
 # 2nd transport cross section = 4.00689E-18 cm**2 = 1.43089E-01 a0**2
 #
 #
 # Differential cross section:                       MU=(1-COS(THETA))/2
 #
 #  THETA        MU          DCS          DCS        Sherman      error
 #  (deg)                 (cm**2/sr)   (a0**2/sr)    function
 #----------------------------------------------------------------------
  0.000E+00  0.00000E+00  7.15628E-15  2.55555E+02  0.00000E+00  1.0E-07
  1.000E-04  7.61557E-13  7.15628E-15  2.55555E+02  9.79539E-10  1.0E-07
  1.250E-04  1.18994E-12  7.15628E-15  2.55555E+02  1.22442E-09  1.0E-07
  1.500E-04  1.71346E-12  7.15628E-15  2.55555E+02  1.46931E-09  1.0E-07
  1.750E-04  2.33225E-12  7.15628E-15  2.55555E+02  1.71419E-09  1.0E-07
  2.000E-04  3.04617E-12  7.15628E-15  2.55555E+02  1.95908E-09  1.0E-07
  2.250E-04  3.85530E-12  7.15628E-15  2.55555E+02  2.20396E-09  1.0E-07
  2.500E-04  4.75964E-12  7.15628E-15  2.55555E+02  2.44885E-09  1.0E-07
  2.750E-04  5.75917E-12  7.15628E-15  2.55555E+02  2.69373E-09  1.0E-07
  3.000E-04  6.85391E-12  7.15628E-15  2.55555E+02  2.93862E-09  1.0E-07
  3.250E-04  8.04379E-12  7.15628E-15  2.55555E+02  3.18350E-09  1.0E-07
  3.500E-04  9.32893E-12  7.15628E-15  2.55555E+02  3.42839E-09  1.0E-07
  3.750E-04  1.07092E-11  7.15628E-15  2.55555E+02  3.67327E-09  1.0E-07
  4.000E-04  1.21847E-11  7.15628E-15  2.55555E+02  3.91815E-09  1.0E-07
  4.250E-04  1.37554E-11  7.15628E-15  2.55555E+02  4.16304E-09  1.0E-07
  4.500E-04  1.54213E-11  7.15628E-15  2.55555E+02  4.40792E-09  1.0E-07
  4.750E-04  1.71823E-11  7.15628E-15  2.55555E+02  4.65281E-09  1.0E-07
  5.000E-04  1.90386E-11  7.15628E-15  2.55555E+02  4.89769E-09  1.0E-07
  5.250E-04  2.09900E-11  7.15628E-15  2.55555E+02  5.14258E-09  1.0E-07
  5.500E-04  2.30367E-11  7.15628E-15  2.55555E+02  5.38746E-09  1.0E-07
  5.750E-04  2.51785E-11  7.15628E-15  2.55555E+02  5.63235E-09  1.0E-07
  6.000E-04  2.74156E-11  7.15628E-15  2.55555E+02  5.87723E-09  1.0E-07
  6.250E-04  2.97478E-11  7.15628E-15  2.55555E+02  6.12212E-09  1.0E-07
  6.500E-04  3.21752E-11  7.15628E-15  2.55555E+02  6.36700E-09  1.0E-07
  6.750E-04  3.46979E-11  7.15628E-15  2.55555E+02  6.61189E-09  1.0E-07
  7.000E-04  3.73157E-11  7.15628E-15  2.55555E+02  6.85677E-09  1.0E-07
  7.250E-04  4.00286E-11  7.15628E-15  2.55555E+02  7.10166E-09  1.0E-07
  7.500E-04  4.28368E-11  7.15628E-15  2.55555E+02  7.34654E-09  1.0E-07
  7.750E-04  4.57402E-11  7.15628E-15  2.55555E+02  7.59143E-09  1.0E-07
  8.000E-04  4.87388E-11  7.15628E-15  2.55555E+02  7.83631E-09  1.0E-07
  8.250E-04  5.18325E-11  7.15628E-15  2.55555E+02  8.08119E-09  1.0E-07
  8.500E-04  5.50215E-11  7.15628E-15  2.55555E+02  8.32608E-09  1.0E-07
  8.750E-04  5.83057E-11  7.15628E-15  2.55555E+02  8.57096E-09  1.0E-07
  9.000E-04  6.16850E-11  7.15628E-15  2.55555E+02  8.81585E-09  1.0E-07
  9.250E-04  6.51595E-11  7.15628E-15  2.55555E+02  9.06073E-09  1.0E-07
  9.500E-04  6.87293E-11  7.15628E-15  2.55555E+02  9.30562E-09  1.0E-07
  9.750E-04  7.23943E-11  7.15628E-15  2.55555E+02  9.55050E-09  1.0E-07
  1.000E-03  7.61544E-11  7.15628E-15  2.55555E+02  9.79539E-09  1.0E-07
  1.250E-03  1.18991E-10  7.15627E-15  2.55555E+02  1.22442E-08  1.0E-07
  1.500E-03  1.71347E-10  7.15627E-15  2.55555E+02  1.46931E-08  1.0E-07
  1.750E-03  2.33223E-10  7.15627E-15  2.55555E+02  1.71419E-08  1.0E-07
  2.000E-03  3.04617E-10  7.15627E-15  2.55555E+02  1.95908E-08  1.0E-07
  2.250E-03  3.85531E-10  7.15627E-15  2.55555E+02  2.20396E-08  1.0E-07
  2.500E-03  4.75965E-10  7.15626E-15  2.55555E+02  2.44885E-08  1.0E-07
  2.750E-03  5.75917E-10  7.15626E-15  2.55555E+02  2.69374E-08  1.0E-07
  3.000E-03  6.85389E-10  7.15626E-15  2.55555E+02  2.93862E-08  1.0E-07
  3.250E-03  8.04380E-10  7.15625E-15  2.55554E+02  3.18351E-08  1.0E-07
  3.500E-03  9.32891E-10  7.15625E-15  2.55554E+02  3.42839E-08  1.0E-07
  3.750E-03  1.07092E-09  7.15625E-15  2.55554E+02  3.67328E-08  1.0E-07
  4.000E-03  1.21847E-09  7.15624E-15  2.55554E+02  3.91817E-08  1.0E-07
  4.250E-03  1.37554E-09  7.15624E-15  2.55554E+02  4.16305E-08  1.0E-07
  4.500E-03  1.54213E-09  7.15623E-15  2.55554E+02  4.40794E-08  1.0E-07
  4.750E-03  1.71823E-09  7.15623E-15  2.55554E+02  4.65283E-08  1.0E-07
  5.000E-03  1.90386E-09  7.15622E-15  2.55553E+02  4.89772E-08  1.0E-07
  5.250E-03  2.09900E-09  7.15622E-15  2.55553E+02  5.14260E-08  1.0E-07
  5.500E-03  2.30367E-09  7.15621E-15  2.55553E+02  5.38749E-08  1.0E-07
  5.750E-03  2.51785E-09  7.15621E-15  2.55553E+02  5.63238E-08  1.0E-07
  6.000E-03  2.74156E-09  7.15620E-15  2.55553E+02  5.87727E-08  1.0E-07
  6.250E-03  2.97478E-09  7.15619E-15  2.55552E+02  6.12216E-08  1.0E-07
  6.500E-03  3.21752E-09  7.15619E-15  2.55552E+02  6.36705E-08  1.0E-07
  6.750E-03  3.46978E-09  7.15618E-15  2.55552E+02  6.61194E-08  1.0E-07
  7.000E-03  3.73156E-09  7.15617E-15  2.55552E+02  6.85683E-08  1.0E-07
  7.250E-03  4.00286E-09  7.15616E-15  2.55551E+02  7.10173E-08  1.0E-07
  7.500E-03  4.28368E-09  7.15616E-15  2.55551E+02  7.34662E-08  1.0E-07
  7.750E-03  4.57402E-09  7.15615E-15  2.55551E+02  7.59151E-08  1.0E-07
  8.000E-03  4.87388E-09  7.15614E-15  2.55550E+02  7.83640E-08  1.0E-07
  8.250E-03  5.18326E-09  7.15613E-15  2.55550E+02  8.08130E-08  1.0E-07
  8.500E-03  5.50215E-09  7.15612E-15  2.55550E+02  8.32619E-08  1.0E-07
  8.750E-03  5.83057E-09  7.15611E-15  2.55549E+02  8.57109E-08  1.0E-07
  9.000E-03  6.16850E-09  7.15610E-15  2.55549E+02  8.81598E-08  1.0E-07
  9.250E-03  6.51596E-09  7.15609E-15  2.55549E+02  9.06088E-08  1.0E-07
  9.500E-03  6.87293E-09  7.15608E-15  2.55548E+02  9.30578E-08  1.0E-07
  9.750E-03  7.23942E-09  7.15607E-15  2.55548E+02  9.55068E-08  1.0E-07
  1.000E-02  7.61544E-09  7.15606E-15  2.55548E+02  9.79557E-08  1.0E-07
  1.250E-02  1.18991E-08  7.15594E-15  2.55543E+02  1.22446E-07  1.0E-07
  1.500E-02  1.71347E-08  7.15579E-15  2.55538E+02  1.46937E-07  1.0E-07
  1.750E-02  2.33223E-08  7.15562E-15  2.55532E+02  1.71429E-07  1.0E-07
  2.000E-02  3.04617E-08  7.15542E-15  2.55525E+02  1.95923E-07  1.0E-07
  2.250E-02  3.85531E-08  7.15519E-15  2.55516E+02  2.20418E-07  1.0E-07
  2.500E-02  4.75965E-08  7.15493E-15  2.55507E+02  2.44914E-07  1.0E-07
  2.750E-02  5.75917E-08  7.15465E-15  2.55497E+02  2.69412E-07  1.0E-07
  3.000E-02  6.85389E-08  7.15434E-15  2.55486E+02  2.93912E-07  1.0E-07
  3.250E-02  8.04380E-08  7.15401E-15  2.55474E+02  3.18414E-07  1.0E-07
  3.500E-02  9.32891E-08  7.15364E-15  2.55461E+02  3.42919E-07  1.0E-07
  3.750E-02  1.07092E-07  7.15325E-15  2.55447E+02  3.67426E-07  1.0E-07
  4.000E-02  1.21847E-07  7.15284E-15  2.55433E+02  3.91935E-07  1.0E-07
  4.250E-02  1.37554E-07  7.15240E-15  2.55417E+02  4.16448E-07  1.0E-07
  4.500E-02  1.54213E-07  7.15193E-15  2.55400E+02  4.40963E-07  1.0E-07
  4.750E-02  1.71823E-07  7.15143E-15  2.55382E+02  4.65481E-07  1.0E-07
  5.000E-02  1.90386E-07  7.15091E-15  2.55363E+02  4.90003E-07  1.0E-07
  5.250E-02  2.09900E-07  7.15036E-15  2.55344E+02  5.14529E-07  1.0E-07
  5.500E-02  2.30367E-07  7.14978E-15  2.55323E+02  5.39058E-07  1.0E-07
  5.750E-02  2.51785E-07  7.14918E-15  2.55302E+02  5.63590E-07  1.0E-07
  6.000E-02  2.74156E-07  7.14854E-15  2.55279E+02  5.88127E-07  1.0E-07
  6.250E-02  2.97478E-07  7.14789E-15  2.55256E+02  6.12669E-07  1.0E-07
  6.500E-02  3.21752E-07  7.14720E-15  2.55231E+02  6.37214E-07  1.0E-07
  6.750E-02  3.46978E-07  7.14649E-15  2.55206E+02  6.61764E-07  1.0E-07
  7.000E-02  3.73156E-07  7.14576E-15  2.55180E+02  6.86319E-07  1.0E-07
  7.250E-02  4.00286E-07  7.14499E-15  2.55152E+02  7.10879E-07  1.0E-07
  7.500E-02  4.28368E-07  7.14420E-15  2.55124E+02  7.35443E-07  1.0E-07
  7.750E-02  4.57402E-07  7.14338E-15  2.55095E+02  7.60014E-07  1.0E-07
  8.000E-02  4.87388E-07  7.14254E-15  2.55065E+02  7.84589E-07  1.0E-07
  8.250E-02  5.18325E-07  7.14167E-15  2.55034E+02  8.09170E-07  1.0E-07
  8.500E-02  5.50215E-07  7.14077E-15  2.55002E+02  8.33757E-07  1.0E-07
  8.750E-02  5.83057E-07  7.13985E-15  2.54969E+02  8.58350E-07  1.0E-07
  9.000E-02  6.16850E-07  7.13890E-15  2.54935E+02  8.82949E-07  1.0E-07
  9.250E-02  6.51596E-07  7.13792E-15  2.54900E+02  9.07554E-07  1.0E-07
  9.500E-02  6.87293E-07  7.13692E-15  2.54864E+02  9.32166E-07  1.0E-07
  9.750E-02  7.23942E-07  7.13589E-15  2.54827E+02  9.56785E-07  1.0E-07
  1.000E-01  7.61543E-07  7.13483E-15  2.54790E+02  9.81410E-07  1.0E-07
  1.250E-01  1.18991E-06  7.12282E-15  2.54360E+02  1.22808E-06  1.0E-07
  1.500E-01  1.71347E-06  7.10818E-15  2.53838E+02  1.47562E-06  1.0E-07
  1.750E-01  2.33223E-06  7.09095E-15  2.53222E+02  1.72422E-06  1.0E-07
  2.000E-01  3.04617E-06  7.07116E-15  2.52516E+02  1.97404E-06  1.0E-07
  2.250E-01  3.85531E-06  7.04884E-15  2.51719E+02  2.22527E-06  1.0E-07
  2.500E-01  4.75964E-06  7.02404E-15  2.50833E+02  2.47807E-06  1.0E-07
  2.750E-01  5.75916E-06  6.99680E-15  2.49860E+02  2.73262E-06  1.0E-07
  3.000E-01  6.85388E-06  6.96718E-15  2.48802E+02  2.98910E-06  1.0E-07
  3.250E-01  8.04378E-06  6.93522E-15  2.47661E+02  3.24768E-06  1.0E-07
  3.500E-01  9.32888E-06  6.90099E-15  2.46439E+02  3.50853E-06  1.0E-07
  3.750E-01  1.07092E-05  6.86454E-15  2.45137E+02  3.77183E-06  1.0E-07
  4.000E-01  1.21846E-05  6.82594E-15  2.43759E+02  4.03775E-06  1.0E-07
  4.250E-01  1.37553E-05  6.78526E-15  2.42306E+02  4.30646E-06  1.0E-07
  4.500E-01  1.54212E-05  6.74257E-15  2.40782E+02  4.57814E-06  1.0E-07
  4.750E-01  1.71822E-05  6.69794E-15  2.39188E+02  4.85296E-06  1.0E-07
  5.000E-01  1.90385E-05  6.65144E-15  2.37527E+02  5.13109E-06  1.0E-07
  5.250E-01  2.09899E-05  6.60314E-15  2.35803E+02  5.41270E-06  1.0E-07
  5.500E-01  2.30365E-05  6.55314E-15  2.34017E+02  5.69796E-06  1.0E-07
  5.750E-01  2.51783E-05  6.50150E-15  2.32173E+02  5.98705E-06  1.0E-07
  6.000E-01  2.74153E-05  6.44830E-15  2.30273E+02  6.28014E-06  1.0E-07
  6.250E-01  2.97475E-05  6.39363E-15  2.28321E+02  6.57739E-06  1.0E-07
  6.500E-01  3.21749E-05  6.33757E-15  2.26319E+02  6.87898E-06  1.0E-07
  6.750E-01  3.46974E-05  6.28019E-15  2.24270E+02  7.18507E-06  1.0E-07
  7.000E-01  3.73152E-05  6.22158E-15  2.22177E+02  7.49584E-06  1.0E-07
  7.250E-01  4.00281E-05  6.16182E-15  2.20043E+02  7.81145E-06  1.0E-07
  7.500E-01  4.28362E-05  6.10099E-15  2.17870E+02  8.13208E-06  1.0E-07
  7.750E-01  4.57395E-05  6.03917E-15  2.15663E+02  8.45788E-06  1.0E-07
  8.000E-01  4.87380E-05  5.97643E-15  2.13422E+02  8.78903E-06  1.0E-07
  8.250E-01  5.18317E-05  5.91287E-15  2.11152E+02  9.12569E-06  1.0E-07
  8.500E-01  5.50205E-05  5.84854E-15  2.08855E+02  9.46803E-06  1.0E-07
  8.750E-01  5.83045E-05  5.78353E-15  2.06534E+02  9.81622E-06  1.0E-07
  9.000E-01  6.16838E-05  5.71792E-15  2.04191E+02  1.01704E-05  1.0E-07
  9.250E-01  6.51582E-05  5.65177E-15  2.01828E+02  1.05308E-05  1.0E-07
  9.500E-01  6.87277E-05  5.58515E-15  1.99449E+02  1.08975E-05  1.0E-07
  9.750E-01  7.23925E-05  5.51814E-15  1.97056E+02  1.12708E-05  1.0E-07
  1.000E+00  7.61524E-05  5.45080E-15  1.94651E+02  1.16508E-05  1.0E-07
  1.100E+00  9.21439E-05  5.17937E-15  1.84959E+02  1.32404E-05  1.0E-07
  1.200E+00  1.09658E-04  4.90743E-15  1.75248E+02  1.49498E-05  1.0E-07
  1.300E+00  1.28695E-04  4.63818E-15  1.65632E+02  1.67896E-05  1.0E-07
  1.400E+00  1.49255E-04  4.37426E-15  1.56208E+02  1.87700E-05  1.0E-07
  1.500E+00  1.71338E-04  4.11776E-15  1.47048E+02  2.09016E-05  1.0E-07
  1.600E+00  1.94942E-04  3.87026E-15  1.38209E+02  2.31945E-05  1.0E-07
  1.700E+00  2.20070E-04  3.63290E-15  1.29733E+02  2.56594E-05  1.0E-07
  1.800E+00  2.46720E-04  3.40646E-15  1.21647E+02  2.83066E-05  1.0E-07
  1.900E+00  2.74892E-04  3.19137E-15  1.13966E+02  3.11467E-05  1.0E-07
  2.000E+00  3.04586E-04  2.98783E-15  1.06697E+02  3.41904E-05  1.0E-07
  2.100E+00  3.35803E-04  2.79581E-15  9.98401E+01  3.74483E-05  1.0E-07
  2.200E+00  3.68542E-04  2.61513E-15  9.33880E+01  4.09314E-05  1.0E-07
  2.300E+00  4.02802E-04  2.44550E-15  8.73304E+01  4.46505E-05  1.0E-07
  2.400E+00  4.38585E-04  2.28653E-15  8.16535E+01  4.86166E-05  1.0E-07
  2.500E+00  4.75889E-04  2.13778E-15  7.63416E+01  5.28406E-05  1.0E-07
  2.600E+00  5.14715E-04  1.99877E-15  7.13773E+01  5.73336E-05  1.0E-07
  2.700E+00  5.55063E-04  1.86898E-15  6.67427E+01  6.21065E-05  1.0E-07
  2.800E+00  5.96931E-04  1.74792E-15  6.24194E+01  6.71702E-05  1.0E-07
  2.900E+00  6.40321E-04  1.63507E-15  5.83894E+01  7.25354E-05  1.0E-07
  3.000E+00  6.85233E-04  1.52993E-15  5.46346E+01  7.82128E-05  1.0E-07
  3.100E+00  7.31665E-04  1.43200E-15  5.11378E+01  8.42126E-05  1.0E-07
  3.200E+00  7.79618E-04  1.34084E-15  4.78821E+01  9.05449E-05  1.0E-07
  3.300E+00  8.29092E-04  1.25598E-15  4.48517E+01  9.72193E-05  1.0E-07
  3.400E+00  8.80086E-04  1.17700E-15  4.20313E+01  1.04245E-04  1.0E-07
  3.500E+00  9.32601E-04  1.10350E-15  3.94066E+01  1.11631E-04  1.0E-07
  3.600E+00  9.86636E-04  1.03510E-15  3.69639E+01  1.19384E-04  1.0E-07
  3.700E+00  1.04219E-03  9.71438E-16  3.46907E+01  1.27513E-04  1.0E-07
  3.800E+00  1.09927E-03  9.12188E-16  3.25748E+01  1.36025E-04  1.0E-07
  3.900E+00  1.15786E-03  8.57035E-16  3.06053E+01  1.44924E-04  1.0E-07
  4.000E+00  1.21797E-03  8.05686E-16  2.87716E+01  1.54216E-04  1.0E-07
  4.100E+00  1.27961E-03  7.57869E-16  2.70640E+01  1.63905E-04  1.0E-07
  4.200E+00  1.34276E-03  7.13330E-16  2.54735E+01  1.73994E-04  1.0E-07
  4.300E+00  1.40743E-03  6.71833E-16  2.39916E+01  1.84485E-04  1.0E-07
  4.400E+00  1.47362E-03  6.33159E-16  2.26105E+01  1.95378E-04  1.0E-07
  4.500E+00  1.54133E-03  5.97104E-16  2.13230E+01  2.06673E-04  1.0E-07
  4.600E+00  1.61056E-03  5.63480E-16  2.01222E+01  2.18368E-04  1.0E-07
  4.700E+00  1.68131E-03  5.32109E-16  1.90020E+01  2.30462E-04  1.0E-07
  4.800E+00  1.75357E-03  5.02831E-16  1.79564E+01  2.42949E-04  1.0E-07
  4.900E+00  1.82735E-03  4.75493E-16  1.69801E+01  2.55824E-04  1.0E-07
  5.000E+00  1.90265E-03  4.49955E-16  1.60682E+01  2.69080E-04  1.0E-07
  5.100E+00  1.97947E-03  4.26090E-16  1.52159E+01  2.82710E-04  1.0E-07
  5.200E+00  2.05780E-03  4.03775E-16  1.44191E+01  2.96705E-04  1.0E-07
  5.300E+00  2.13765E-03  3.82900E-16  1.36736E+01  3.11054E-04  1.0E-07
  5.400E+00  2.21902E-03  3.63361E-16  1.29759E+01  3.25745E-04  1.0E-07
  5.500E+00  2.30190E-03  3.45064E-16  1.23225E+01  3.40767E-04  1.0E-07
  5.600E+00  2.38630E-03  3.27921E-16  1.17103E+01  3.56106E-04  1.0E-07
  5.700E+00  2.47222E-03  3.11848E-16  1.11363E+01  3.71746E-04  1.0E-07
  5.800E+00  2.55965E-03  2.96770E-16  1.05979E+01  3.87673E-04  1.0E-07
  5.900E+00  2.64859E-03  2.82618E-16  1.00925E+01  4.03870E-04  1.0E-07
  6.000E+00  2.73905E-03  2.69326E-16  9.61781E+00  4.20321E-04  1.0E-07
  6.100E+00  2.83103E-03  2.56834E-16  9.17172E+00  4.37006E-04  1.0E-07
  6.200E+00  2.92452E-03  2.45087E-16  8.75222E+00  4.53908E-04  1.0E-07
  6.300E+00  3.01952E-03  2.34033E-16  8.35746E+00  4.71008E-04  1.0E-07
  6.400E+00  3.11604E-03  2.23623E-16  7.98573E+00  4.88286E-04  1.0E-07
  6.500E+00  3.21407E-03  2.13815E-16  7.63546E+00  5.05722E-04  1.0E-07
  6.600E+00  3.31362E-03  2.04566E-16  7.30519E+00  5.23296E-04  1.0E-07
  6.700E+00  3.41468E-03  1.95840E-16  6.99356E+00  5.40988E-04  1.0E-07
  6.800E+00  3.51725E-03  1.87600E-16  6.69931E+00  5.58778E-04  1.0E-07
  6.900E+00  3.62133E-03  1.79814E-16  6.42128E+00  5.76643E-04  1.0E-07
  7.000E+00  3.72692E-03  1.72453E-16  6.15840E+00  5.94564E-04  1.0E-07
  7.100E+00  3.83403E-03  1.65487E-16  5.90966E+00  6.12520E-04  1.0E-07
  7.200E+00  3.94265E-03  1.58892E-16  5.67414E+00  6.30489E-04  1.0E-07
  7.300E+00  4.05278E-03  1.52643E-16  5.45098E+00  6.48451E-04  1.0E-07
  7.400E+00  4.16442E-03  1.46718E-16  5.23939E+00  6.66384E-04  1.0E-07
  7.500E+00  4.27757E-03  1.41096E-16  5.03862E+00  6.84269E-04  1.0E-07
  7.600E+00  4.39223E-03  1.35758E-16  4.84799E+00  7.02084E-04  1.0E-07
  7.700E+00  4.50840E-03  1.30686E-16  4.66687E+00  7.19809E-04  1.0E-07
  7.800E+00  4.62608E-03  1.25863E-16  4.49465E+00  7.37423E-04  1.0E-07
  7.900E+00  4.74527E-03  1.21275E-16  4.33081E+00  7.54905E-04  1.0E-07
  8.000E+00  4.86597E-03  1.16907E-16  4.17482E+00  7.72236E-04  1.0E-07
  8.100E+00  4.98817E-03  1.12745E-16  4.02621E+00  7.89394E-04  1.0E-07
  8.200E+00  5.11188E-03  1.08778E-16  3.88455E+00  8.06360E-04  1.0E-07
  8.300E+00  5.23711E-03  1.04994E-16  3.74942E+00  8.23113E-04  1.0E-07
  8.400E+00  5.36383E-03  1.01383E-16  3.62044E+00  8.39633E-04  1.0E-07
  8.500E+00  5.49207E-03  9.79334E-17  3.49727E+00  8.55899E-04  1.0E-07
  8.600E+00  5.62181E-03  9.46373E-17  3.37956E+00  8.71891E-04  1.0E-07
  8.700E+00  5.75306E-03  9.14856E-17  3.26701E+00  8.87589E-04  1.0E-07
  8.800E+00  5.88581E-03  8.84705E-17  3.15934E+00  9.02972E-04  1.0E-07
  8.900E+00  6.02007E-03  8.55844E-17  3.05627E+00  9.18019E-04  1.0E-07
  9.000E+00  6.15583E-03  8.28203E-17  2.95757E+00  9.32710E-04  1.0E-07
  9.100E+00  6.29310E-03  8.01717E-17  2.86298E+00  9.47023E-04  1.0E-07
  9.200E+00  6.43187E-03  7.76325E-17  2.77231E+00  9.60938E-04  1.0E-07
  9.300E+00  6.57214E-03  7.51971E-17  2.68534E+00  9.74434E-04  1.0E-07
  9.400E+00  6.71392E-03  7.28600E-17  2.60188E+00  9.87487E-04  1.0E-07
  9.500E+00  6.85720E-03  7.06163E-17  2.52175E+00  1.00008E-03  1.0E-07
  9.600E+00  7.00198E-03  6.84614E-17  2.44480E+00  1.01218E-03  1.0E-07
  9.700E+00  7.14827E-03  6.63907E-17  2.37086E+00  1.02378E-03  1.0E-07
  9.800E+00  7.29605E-03  6.44003E-17  2.29978E+00  1.03485E-03  1.0E-07
  9.900E+00  7.44534E-03  6.24863E-17  2.23142E+00  1.04537E-03  1.0E-07
  1.000E+01  7.59612E-03  6.06449E-17  2.16567E+00  1.05531E-03  1.0E-07
  1.025E+01  7.97965E-03  5.63379E-17  2.01186E+00  1.07749E-03  1.0E-07
  1.050E+01  8.37255E-03  5.24166E-17  1.87183E+00  1.09556E-03  1.0E-07
  1.075E+01  8.77480E-03  4.88394E-17  1.74409E+00  1.10914E-03  1.0E-07
  1.100E+01  9.18641E-03  4.55705E-17  1.62735E+00  1.11786E-03  1.0E-07
  1.125E+01  9.60736E-03  4.25783E-17  1.52050E+00  1.12131E-03  1.0E-07
  1.150E+01  1.00376E-02  3.98354E-17  1.42255E+00  1.11913E-03  1.0E-07
  1.175E+01  1.04773E-02  3.73176E-17  1.33264E+00  1.11092E-03  1.0E-07
  1.200E+01  1.09262E-02  3.50035E-17  1.25000E+00  1.09631E-03  1.0E-07
  1.225E+01  1.13844E-02  3.28740E-17  1.17395E+00  1.07493E-03  1.0E-07
  1.250E+01  1.18520E-02  3.09123E-17  1.10390E+00  1.04643E-03  1.0E-07
  1.275E+01  1.23288E-02  2.91032E-17  1.03930E+00  1.01049E-03  1.0E-07
  1.300E+01  1.28150E-02  2.74331E-17  9.79654E-01  9.66801E-04  1.0E-07
  1.325E+01  1.33104E-02  2.58897E-17  9.24540E-01  9.15080E-04  1.0E-07
  1.350E+01  1.38150E-02  2.44621E-17  8.73557E-01  8.55083E-04  1.0E-07
  1.375E+01  1.43290E-02  2.31401E-17  8.26348E-01  7.86599E-04  1.0E-07
  1.400E+01  1.48521E-02  2.19148E-17  7.82592E-01  7.09453E-04  1.0E-07
  1.425E+01  1.53845E-02  2.07779E-17  7.41994E-01  6.23509E-04  1.0E-07
  1.450E+01  1.59262E-02  1.97220E-17  7.04287E-01  5.28670E-04  1.0E-07
  1.475E+01  1.64770E-02  1.87403E-17  6.69229E-01  4.24881E-04  1.0E-07
  1.500E+01  1.70371E-02  1.78266E-17  6.36598E-01  3.12126E-04  1.0E-07
  1.525E+01  1.76063E-02  1.69752E-17  6.06195E-01  1.90433E-04  1.0E-07
  1.550E+01  1.81848E-02  1.61810E-17  5.77834E-01  5.98642E-05  1.0E-07
