 #
 # Subroutine ELSEPA. Elastic scattering of electrons and positrons
 #                    by neutral atoms and positive ions
 #
 # Projectile: electron
 # Kinetic energy = 2.50000E+03 eV = 9.18733E+01 a.u.
 #
 # Element: Au,  Z =  79,  atomic weight = 1.96967E+02 g/mol
 #
 # Nuclear model: Fermi distribution
 #                Average radius = 6.22560E-13 cm
 #                Skin thickness = 5.46000E-14 cm
 #
 # Number of electrons = 79
 #
 # Electron density: Read from file z_079.den   
 #                   Number of data points =  777
 #                   Volume integral = 7.90000E+01
 #
 # Furness-McCarthy exchange potential
 #
 # Total elastic cross section = 1.64927E-16 cm**2 = 5.88967E+00 a0**2
 # 1st transport cross section = 2.80012E-17 cm**2 = 9.99941E-01 a0**2
 # 2nd transport cross section = 2.76573E-17 cm**2 = 9.87659E-01 a0**2
 #
 #
 # Differential cross section:                       MU=(1-COS(THETA))/2
 #
 #  THETA        MU          DCS          DCS        Sherman      error
 #  (deg)                 (cm**2/sr)   (a0**2/sr)    function
 #----------------------------------------------------------------------
  0.000E+00  0.00000E+00  3.99304E-15  1.42594E+02  0.00000E+00  1.0E-07
  1.000E-04  7.61557E-13  3.99304E-15  1.42594E+02  4.12993E-09  1.0E-07
  1.250E-04  1.18994E-12  3.99304E-15  1.42594E+02  5.16241E-09  1.0E-07
  1.500E-04  1.71346E-12  3.99304E-15  1.42594E+02  6.19489E-09  1.0E-07
  1.750E-04  2.33225E-12  3.99304E-15  1.42594E+02  7.22737E-09  1.0E-07
  2.000E-04  3.04617E-12  3.99304E-15  1.42594E+02  8.25985E-09  1.0E-07
  2.250E-04  3.85530E-12  3.99304E-15  1.42594E+02  9.29233E-09  1.0E-07
  2.500E-04  4.75964E-12  3.99304E-15  1.42594E+02  1.03248E-08  1.0E-07
  2.750E-04  5.75917E-12  3.99304E-15  1.42594E+02  1.13573E-08  1.0E-07
  3.000E-04  6.85391E-12  3.99304E-15  1.42594E+02  1.23898E-08  1.0E-07
  3.250E-04  8.04379E-12  3.99304E-15  1.42594E+02  1.34223E-08  1.0E-07
  3.500E-04  9.32893E-12  3.99304E-15  1.42594E+02  1.44547E-08  1.0E-07
  3.750E-04  1.07092E-11  3.99304E-15  1.42594E+02  1.54872E-08  1.0E-07
  4.000E-04  1.21847E-11  3.99304E-15  1.42594E+02  1.65197E-08  1.0E-07
  4.250E-04  1.37554E-11  3.99304E-15  1.42594E+02  1.75522E-08  1.0E-07
  4.500E-04  1.54213E-11  3.99304E-15  1.42594E+02  1.85847E-08  1.0E-07
  4.750E-04  1.71823E-11  3.99304E-15  1.42594E+02  1.96172E-08  1.0E-07
  5.000E-04  1.90386E-11  3.99304E-15  1.42594E+02  2.06496E-08  1.0E-07
  5.250E-04  2.09900E-11  3.99304E-15  1.42594E+02  2.16821E-08  1.0E-07
  5.500E-04  2.30367E-11  3.99304E-15  1.42594E+02  2.27146E-08  1.0E-07
  5.750E-04  2.51785E-11  3.99304E-15  1.42594E+02  2.37471E-08  1.0E-07
  6.000E-04  2.74156E-11  3.99304E-15  1.42594E+02  2.47796E-08  1.0E-07
  6.250E-04  2.97478E-11  3.99304E-15  1.42594E+02  2.58120E-08  1.0E-07
  6.500E-04  3.21752E-11  3.99304E-15  1.42594E+02  2.68445E-08  1.0E-07
  6.750E-04  3.46979E-11  3.99304E-15  1.42594E+02  2.78770E-08  1.0E-07
  7.000E-04  3.73157E-11  3.99304E-15  1.42594E+02  2.89095E-08  1.0E-07
  7.250E-04  4.00286E-11  3.99304E-15  1.42594E+02  2.99420E-08  1.0E-07
  7.500E-04  4.28368E-11  3.99304E-15  1.42594E+02  3.09744E-08  1.0E-07
  7.750E-04  4.57402E-11  3.99304E-15  1.42594E+02  3.20069E-08  1.0E-07
  8.000E-04  4.87388E-11  3.99304E-15  1.42594E+02  3.30394E-08  1.0E-07
  8.250E-04  5.18325E-11  3.99304E-15  1.42594E+02  3.40719E-08  1.0E-07
  8.500E-04  5.50215E-11  3.99304E-15  1.42594E+02  3.51044E-08  1.0E-07
  8.750E-04  5.83057E-11  3.99304E-15  1.42594E+02  3.61369E-08  1.0E-07
  9.000E-04  6.16850E-11  3.99304E-15  1.42594E+02  3.71693E-08  1.0E-07
  9.250E-04  6.51595E-11  3.99304E-15  1.42594E+02  3.82018E-08  1.0E-07
  9.500E-04  6.87293E-11  3.99304E-15  1.42594E+02  3.92343E-08  1.0E-07
  9.750E-04  7.23943E-11  3.99304E-15  1.42594E+02  4.02668E-08  1.0E-07
  1.000E-03  7.61544E-11  3.99304E-15  1.42594E+02  4.12993E-08  1.0E-07
  1.250E-03  1.18991E-10  3.99304E-15  1.42594E+02  5.16241E-08  1.0E-07
  1.500E-03  1.71347E-10  3.99304E-15  1.42594E+02  6.19489E-08  1.0E-07
  1.750E-03  2.33223E-10  3.99304E-15  1.42594E+02  7.22737E-08  1.0E-07
  2.000E-03  3.04617E-10  3.99304E-15  1.42594E+02  8.25985E-08  1.0E-07
  2.250E-03  3.85531E-10  3.99304E-15  1.42594E+02  9.29234E-08  1.0E-07
  2.500E-03  4.75965E-10  3.99304E-15  1.42594E+02  1.03248E-07  1.0E-07
  2.750E-03  5.75917E-10  3.99304E-15  1.42594E+02  1.13573E-07  1.0E-07
  3.000E-03  6.85389E-10  3.99304E-15  1.42594E+02  1.23898E-07  1.0E-07
  3.250E-03  8.04380E-10  3.99304E-15  1.42594E+02  1.34223E-07  1.0E-07
  3.500E-03  9.32891E-10  3.99303E-15  1.42594E+02  1.44547E-07  1.0E-07
  3.750E-03  1.07092E-09  3.99303E-15  1.42594E+02  1.54872E-07  1.0E-07
  4.000E-03  1.21847E-09  3.99303E-15  1.42594E+02  1.65197E-07  1.0E-07
  4.250E-03  1.37554E-09  3.99303E-15  1.42594E+02  1.75522E-07  1.0E-07
  4.500E-03  1.54213E-09  3.99303E-15  1.42594E+02  1.85847E-07  1.0E-07
  4.750E-03  1.71823E-09  3.99303E-15  1.42594E+02  1.96172E-07  1.0E-07
  5.000E-03  1.90386E-09  3.99303E-15  1.42594E+02  2.06496E-07  1.0E-07
  5.250E-03  2.09900E-09  3.99303E-15  1.42594E+02  2.16821E-07  1.0E-07
  5.500E-03  2.30367E-09  3.99303E-15  1.42594E+02  2.27146E-07  1.0E-07
  5.750E-03  2.51785E-09  3.99303E-15  1.42594E+02  2.37471E-07  1.0E-07
  6.000E-03  2.74156E-09  3.99303E-15  1.42594E+02  2.47796E-07  1.0E-07
  6.250E-03  2.97478E-09  3.99303E-15  1.42594E+02  2.58121E-07  1.0E-07
  6.500E-03  3.21752E-09  3.99303E-15  1.42594E+02  2.68446E-07  1.0E-07
  6.750E-03  3.46978E-09  3.99303E-15  1.42594E+02  2.78770E-07  1.0E-07
  7.000E-03  3.73156E-09  3.99303E-15  1.42594E+02  2.89095E-07  1.0E-07
  7.250E-03  4.00286E-09  3.99303E-15  1.42594E+02  2.99420E-07  1.0E-07
  7.500E-03  4.28368E-09  3.99302E-15  1.42594E+02  3.09745E-07  1.0E-07
  7.750E-03  4.57402E-09  3.99302E-15  1.42593E+02  3.20070E-07  1.0E-07
  8.000E-03  4.87388E-09  3.99302E-15  1.42593E+02  3.30395E-07  1.0E-07
  8.250E-03  5.18326E-09  3.99302E-15  1.42593E+02  3.40720E-07  1.0E-07
  8.500E-03  5.50215E-09  3.99302E-15  1.42593E+02  3.51044E-07  1.0E-07
  8.750E-03  5.83057E-09  3.99302E-15  1.42593E+02  3.61369E-07  1.0E-07
  9.000E-03  6.16850E-09  3.99302E-15  1.42593E+02  3.71694E-07  1.0E-07
  9.250E-03  6.51596E-09  3.99302E-15  1.42593E+02  3.82019E-07  1.0E-07
  9.500E-03  6.87293E-09  3.99302E-15  1.42593E+02  3.92344E-07  1.0E-07
  9.750E-03  7.23942E-09  3.99302E-15  1.42593E+02  4.02669E-07  1.0E-07
  1.000E-02  7.61544E-09  3.99302E-15  1.42593E+02  4.12994E-07  1.0E-07
  1.250E-02  1.18991E-08  3.99300E-15  1.42593E+02  5.16243E-07  1.0E-07
  1.500E-02  1.71347E-08  3.99299E-15  1.42592E+02  6.19493E-07  1.0E-07
  1.750E-02  2.33223E-08  3.99297E-15  1.42591E+02  7.22743E-07  1.0E-07
  2.000E-02  3.04617E-08  3.99295E-15  1.42591E+02  8.25994E-07  1.0E-07
  2.250E-02  3.85531E-08  3.99292E-15  1.42590E+02  9.29246E-07  1.0E-07
  2.500E-02  4.75965E-08  3.99290E-15  1.42589E+02  1.03250E-06  1.0E-07
  2.750E-02  5.75917E-08  3.99287E-15  1.42588E+02  1.13575E-06  1.0E-07
  3.000E-02  6.85389E-08  3.99283E-15  1.42587E+02  1.23901E-06  1.0E-07
  3.250E-02  8.04380E-08  3.99280E-15  1.42585E+02  1.34227E-06  1.0E-07
  3.500E-02  9.32891E-08  3.99276E-15  1.42584E+02  1.44552E-06  1.0E-07
  3.750E-02  1.07092E-07  3.99272E-15  1.42583E+02  1.54878E-06  1.0E-07
  4.000E-02  1.21847E-07  3.99268E-15  1.42581E+02  1.65204E-06  1.0E-07
  4.250E-02  1.37554E-07  3.99263E-15  1.42579E+02  1.75531E-06  1.0E-07
  4.500E-02  1.54213E-07  3.99258E-15  1.42578E+02  1.85857E-06  1.0E-07
  4.750E-02  1.71823E-07  3.99253E-15  1.42576E+02  1.96184E-06  1.0E-07
  5.000E-02  1.90386E-07  3.99247E-15  1.42574E+02  2.06511E-06  1.0E-07
  5.250E-02  2.09900E-07  3.99242E-15  1.42572E+02  2.16838E-06  1.0E-07
  5.500E-02  2.30367E-07  3.99235E-15  1.42570E+02  2.27165E-06  1.0E-07
  5.750E-02  2.51785E-07  3.99229E-15  1.42567E+02  2.37492E-06  1.0E-07
  6.000E-02  2.74156E-07  3.99222E-15  1.42565E+02  2.47820E-06  1.0E-07
  6.250E-02  2.97478E-07  3.99216E-15  1.42562E+02  2.58148E-06  1.0E-07
  6.500E-02  3.21752E-07  3.99208E-15  1.42560E+02  2.68476E-06  1.0E-07
  6.750E-02  3.46978E-07  3.99201E-15  1.42557E+02  2.78805E-06  1.0E-07
  7.000E-02  3.73156E-07  3.99193E-15  1.42554E+02  2.89134E-06  1.0E-07
  7.250E-02  4.00286E-07  3.99185E-15  1.42552E+02  2.99463E-06  1.0E-07
  7.500E-02  4.28368E-07  3.99177E-15  1.42549E+02  3.09792E-06  1.0E-07
  7.750E-02  4.57402E-07  3.99168E-15  1.42546E+02  3.20122E-06  1.0E-07
  8.000E-02  4.87388E-07  3.99159E-15  1.42542E+02  3.30452E-06  1.0E-07
  8.250E-02  5.18325E-07  3.99150E-15  1.42539E+02  3.40783E-06  1.0E-07
  8.500E-02  5.50215E-07  3.99141E-15  1.42536E+02  3.51114E-06  1.0E-07
  8.750E-02  5.83057E-07  3.99131E-15  1.42532E+02  3.61445E-06  1.0E-07
  9.000E-02  6.16850E-07  3.99121E-15  1.42529E+02  3.71776E-06  1.0E-07
  9.250E-02  6.51596E-07  3.99111E-15  1.42525E+02  3.82108E-06  1.0E-07
  9.500E-02  6.87293E-07  3.99100E-15  1.42521E+02  3.92440E-06  1.0E-07
  9.750E-02  7.23942E-07  3.99089E-15  1.42517E+02  4.02773E-06  1.0E-07
  1.000E-01  7.61543E-07  3.99078E-15  1.42513E+02  4.13106E-06  1.0E-07
  1.250E-01  1.18991E-06  3.98951E-15  1.42468E+02  5.16463E-06  1.0E-07
  1.500E-01  1.71347E-06  3.98796E-15  1.42413E+02  6.19872E-06  1.0E-07
  1.750E-01  2.33223E-06  3.98613E-15  1.42347E+02  7.23346E-06  1.0E-07
  2.000E-01  3.04617E-06  3.98402E-15  1.42272E+02  8.26894E-06  1.0E-07
  2.250E-01  3.85531E-06  3.98163E-15  1.42187E+02  9.30528E-06  1.0E-07
  2.500E-01  4.75964E-06  3.97896E-15  1.42091E+02  1.03426E-05  1.0E-07
  2.750E-01  5.75916E-06  3.97602E-15  1.41986E+02  1.13809E-05  1.0E-07
  3.000E-01  6.85388E-06  3.97279E-15  1.41871E+02  1.24204E-05  1.0E-07
  3.250E-01  8.04378E-06  3.96930E-15  1.41746E+02  1.34613E-05  1.0E-07
  3.500E-01  9.32888E-06  3.96552E-15  1.41611E+02  1.45034E-05  1.0E-07
  3.750E-01  1.07092E-05  3.96148E-15  1.41467E+02  1.55471E-05  1.0E-07
  4.000E-01  1.21846E-05  3.95716E-15  1.41313E+02  1.65924E-05  1.0E-07
  4.250E-01  1.37553E-05  3.95257E-15  1.41149E+02  1.76393E-05  1.0E-07
  4.500E-01  1.54212E-05  3.94771E-15  1.40975E+02  1.86881E-05  1.0E-07
  4.750E-01  1.71822E-05  3.94259E-15  1.40792E+02  1.97388E-05  1.0E-07
  5.000E-01  1.90385E-05  3.93720E-15  1.40600E+02  2.07915E-05  1.0E-07
  5.250E-01  2.09899E-05  3.93154E-15  1.40398E+02  2.18463E-05  1.0E-07
  5.500E-01  2.30365E-05  3.92563E-15  1.40187E+02  2.29034E-05  1.0E-07
  5.750E-01  2.51783E-05  3.91945E-15  1.39966E+02  2.39628E-05  1.0E-07
  6.000E-01  2.74153E-05  3.91301E-15  1.39736E+02  2.50246E-05  1.0E-07
  6.250E-01  2.97475E-05  3.90632E-15  1.39497E+02  2.60889E-05  1.0E-07
  6.500E-01  3.21749E-05  3.89937E-15  1.39249E+02  2.71559E-05  1.0E-07
  6.750E-01  3.46974E-05  3.89217E-15  1.38992E+02  2.82257E-05  1.0E-07
  7.000E-01  3.73152E-05  3.88472E-15  1.38726E+02  2.92983E-05  1.0E-07
  7.250E-01  4.00281E-05  3.87702E-15  1.38451E+02  3.03739E-05  1.0E-07
  7.500E-01  4.28362E-05  3.86908E-15  1.38167E+02  3.14525E-05  1.0E-07
  7.750E-01  4.57395E-05  3.86090E-15  1.37875E+02  3.25343E-05  1.0E-07
  8.000E-01  4.87380E-05  3.85247E-15  1.37574E+02  3.36193E-05  1.0E-07
  8.250E-01  5.18317E-05  3.84381E-15  1.37265E+02  3.47078E-05  1.0E-07
  8.500E-01  5.50205E-05  3.83491E-15  1.36947E+02  3.57997E-05  1.0E-07
  8.750E-01  5.83045E-05  3.82578E-15  1.36621E+02  3.68952E-05  1.0E-07
  9.000E-01  6.16838E-05  3.81642E-15  1.36287E+02  3.79943E-05  1.0E-07
  9.250E-01  6.51582E-05  3.80683E-15  1.35945E+02  3.90973E-05  1.0E-07
  9.500E-01  6.87277E-05  3.79702E-15  1.35594E+02  4.02041E-05  1.0E-07
  9.750E-01  7.23925E-05  3.78699E-15  1.35236E+02  4.13149E-05  1.0E-07
  1.000E+00  7.61524E-05  3.77674E-15  1.34870E+02  4.24298E-05  1.0E-07
  1.100E+00  9.21439E-05  3.73363E-15  1.33330E+02  4.69324E-05  1.0E-07
  1.200E+00  1.09658E-04  3.68727E-15  1.31675E+02  5.15083E-05  1.0E-07
  1.300E+00  1.28695E-04  3.63789E-15  1.29911E+02  5.61640E-05  1.0E-07
  1.400E+00  1.49255E-04  3.58570E-15  1.28048E+02  6.09058E-05  1.0E-07
  1.500E+00  1.71338E-04  3.53092E-15  1.26091E+02  6.57398E-05  1.0E-07
  1.600E+00  1.94942E-04  3.47378E-15  1.24051E+02  7.06721E-05  1.0E-07
  1.700E+00  2.20070E-04  3.41450E-15  1.21934E+02  7.57087E-05  1.0E-07
  1.800E+00  2.46720E-04  3.35333E-15  1.19749E+02  8.08553E-05  1.0E-07
  1.900E+00  2.74892E-04  3.29047E-15  1.17505E+02  8.61178E-05  1.0E-07
  2.000E+00  3.04586E-04  3.22617E-15  1.15209E+02  9.15018E-05  1.0E-07
  2.100E+00  3.35803E-04  3.16063E-15  1.12868E+02  9.70126E-05  1.0E-07
  2.200E+00  3.68542E-04  3.09408E-15  1.10492E+02  1.02656E-04  1.0E-07
  2.300E+00  4.02802E-04  3.02671E-15  1.08086E+02  1.08436E-04  1.0E-07
  2.400E+00  4.38585E-04  2.95872E-15  1.05658E+02  1.14359E-04  1.0E-07
  2.500E+00  4.75889E-04  2.89031E-15  1.03215E+02  1.20429E-04  1.0E-07
  2.600E+00  5.14715E-04  2.82166E-15  1.00763E+02  1.26651E-04  1.0E-07
  2.700E+00  5.55063E-04  2.75293E-15  9.83088E+01  1.33029E-04  1.0E-07
  2.800E+00  5.96931E-04  2.68428E-15  9.58573E+01  1.39567E-04  1.0E-07
  2.900E+00  6.40321E-04  2.61586E-15  9.34140E+01  1.46271E-04  1.0E-07
  3.000E+00  6.85233E-04  2.54781E-15  9.09840E+01  1.53143E-04  1.0E-07
  3.100E+00  7.31665E-04  2.48026E-15  8.85717E+01  1.60187E-04  1.0E-07
  3.200E+00  7.79618E-04  2.41332E-15  8.61813E+01  1.67406E-04  1.0E-07
  3.300E+00  8.29092E-04  2.34711E-15  8.38167E+01  1.74805E-04  1.0E-07
  3.400E+00  8.80086E-04  2.28170E-15  8.14812E+01  1.82385E-04  1.0E-07
  3.500E+00  9.32601E-04  2.21721E-15  7.91778E+01  1.90149E-04  1.0E-07
  3.600E+00  9.86636E-04  2.15369E-15  7.69095E+01  1.98100E-04  1.0E-07
  3.700E+00  1.04219E-03  2.09121E-15  7.46785E+01  2.06240E-04  1.0E-07
  3.800E+00  1.09927E-03  2.02984E-15  7.24870E+01  2.14571E-04  1.0E-07
  3.900E+00  1.15786E-03  1.96963E-15  7.03367E+01  2.23094E-04  1.0E-07
  4.000E+00  1.21797E-03  1.91061E-15  6.82293E+01  2.31810E-04  1.0E-07
  4.100E+00  1.27961E-03  1.85283E-15  6.61659E+01  2.40720E-04  1.0E-07
  4.200E+00  1.34276E-03  1.79632E-15  6.41477E+01  2.49826E-04  1.0E-07
  4.300E+00  1.40743E-03  1.74109E-15  6.21754E+01  2.59126E-04  1.0E-07
  4.400E+00  1.47362E-03  1.68716E-15  6.02496E+01  2.68621E-04  1.0E-07
  4.500E+00  1.54133E-03  1.63455E-15  5.83708E+01  2.78309E-04  1.0E-07
  4.600E+00  1.61056E-03  1.58326E-15  5.65392E+01  2.88191E-04  1.0E-07
  4.700E+00  1.68131E-03  1.53329E-15  5.47549E+01  2.98265E-04  1.0E-07
  4.800E+00  1.75357E-03  1.48465E-15  5.30178E+01  3.08528E-04  1.0E-07
  4.900E+00  1.82735E-03  1.43732E-15  5.13277E+01  3.18979E-04  1.0E-07
  5.000E+00  1.90265E-03  1.39130E-15  4.96844E+01  3.29614E-04  1.0E-07
  5.100E+00  1.97947E-03  1.34658E-15  4.80874E+01  3.40431E-04  1.0E-07
  5.200E+00  2.05780E-03  1.30315E-15  4.65362E+01  3.51424E-04  1.0E-07
  5.300E+00  2.13765E-03  1.26098E-15  4.50303E+01  3.62591E-04  1.0E-07
  5.400E+00  2.21902E-03  1.22006E-15  4.35690E+01  3.73926E-04  1.0E-07
  5.500E+00  2.30190E-03  1.18036E-15  4.21516E+01  3.85423E-04  1.0E-07
  5.600E+00  2.38630E-03  1.14188E-15  4.07773E+01  3.97077E-04  1.0E-07
  5.700E+00  2.47222E-03  1.10458E-15  3.94453E+01  4.08880E-04  1.0E-07
  5.800E+00  2.55965E-03  1.06845E-15  3.81549E+01  4.20825E-04  1.0E-07
  5.900E+00  2.64859E-03  1.03345E-15  3.69050E+01  4.32904E-04  1.0E-07
  6.000E+00  2.73905E-03  9.99557E-16  3.56948E+01  4.45108E-04  1.0E-07
  6.100E+00  2.83103E-03  9.66755E-16  3.45234E+01  4.57428E-04  1.0E-07
  6.200E+00  2.92452E-03  9.35013E-16  3.33899E+01  4.69853E-04  1.0E-07
  6.300E+00  3.01952E-03  9.04305E-16  3.22933E+01  4.82373E-04  1.0E-07
  6.400E+00  3.11604E-03  8.74604E-16  3.12327E+01  4.94975E-04  1.0E-07
  6.500E+00  3.21407E-03  8.45884E-16  3.02071E+01  5.07647E-04  1.0E-07
  6.600E+00  3.31362E-03  8.18118E-16  2.92155E+01  5.20375E-04  1.0E-07
  6.700E+00  3.41468E-03  7.91280E-16  2.82571E+01  5.33146E-04  1.0E-07
  6.800E+00  3.51725E-03  7.65343E-16  2.73309E+01  5.45943E-04  1.0E-07
  6.900E+00  3.62133E-03  7.40281E-16  2.64359E+01  5.58750E-04  1.0E-07
  7.000E+00  3.72692E-03  7.16070E-16  2.55713E+01  5.71552E-04  1.0E-07
  7.100E+00  3.83403E-03  6.92683E-16  2.47362E+01  5.84329E-04  1.0E-07
  7.200E+00  3.94265E-03  6.70096E-16  2.39296E+01  5.97062E-04  1.0E-07
  7.300E+00  4.05278E-03  6.48284E-16  2.31506E+01  6.09733E-04  1.0E-07
  7.400E+00  4.16442E-03  6.27223E-16  2.23985E+01  6.22319E-04  1.0E-07
  7.500E+00  4.27757E-03  6.06889E-16  2.16724E+01  6.34799E-04  1.0E-07
  7.600E+00  4.39223E-03  5.87260E-16  2.09714E+01  6.47150E-04  1.0E-07
  7.700E+00  4.50840E-03  5.68312E-16  2.02948E+01  6.59349E-04  1.0E-07
  7.800E+00  4.62608E-03  5.50024E-16  1.96417E+01  6.71370E-04  1.0E-07
  7.900E+00  4.74527E-03  5.32374E-16  1.90114E+01  6.83187E-04  1.0E-07
  8.000E+00  4.86597E-03  5.15340E-16  1.84031E+01  6.94774E-04  1.0E-07
  8.100E+00  4.98817E-03  4.98904E-16  1.78162E+01  7.06102E-04  1.0E-07
  8.200E+00  5.11188E-03  4.83044E-16  1.72498E+01  7.17142E-04  1.0E-07
  8.300E+00  5.23711E-03  4.67741E-16  1.67033E+01  7.27865E-04  1.0E-07
  8.400E+00  5.36383E-03  4.52976E-16  1.61761E+01  7.38239E-04  1.0E-07
  8.500E+00  5.49207E-03  4.38732E-16  1.56674E+01  7.48233E-04  1.0E-07
  8.600E+00  5.62181E-03  4.24989E-16  1.51766E+01  7.57813E-04  1.0E-07
  8.700E+00  5.75306E-03  4.11731E-16  1.47032E+01  7.66945E-04  1.0E-07
  8.800E+00  5.88581E-03  3.98942E-16  1.42465E+01  7.75595E-04  1.0E-07
  8.900E+00  6.02007E-03  3.86604E-16  1.38059E+01  7.83727E-04  1.0E-07
  9.000E+00  6.15583E-03  3.74702E-16  1.33808E+01  7.91305E-04  1.0E-07
  9.100E+00  6.29310E-03  3.63221E-16  1.29708E+01  7.98290E-04  1.0E-07
  9.200E+00  6.43187E-03  3.52145E-16  1.25753E+01  8.04646E-04  1.0E-07
  9.300E+00  6.57214E-03  3.41461E-16  1.21938E+01  8.10332E-04  1.0E-07
  9.400E+00  6.71392E-03  3.31155E-16  1.18258E+01  8.15309E-04  1.0E-07
  9.500E+00  6.85720E-03  3.21213E-16  1.14707E+01  8.19538E-04  1.0E-07
  9.600E+00  7.00198E-03  3.11622E-16  1.11282E+01  8.22977E-04  1.0E-07
  9.700E+00  7.14827E-03  3.02370E-16  1.07978E+01  8.25585E-04  1.0E-07
  9.800E+00  7.29605E-03  2.93445E-16  1.04791E+01  8.27319E-04  1.0E-07
  9.900E+00  7.44534E-03  2.84834E-16  1.01716E+01  8.28139E-04  1.0E-07
  1.000E+01  7.59612E-03  2.76526E-16  9.87493E+00  8.28001E-04  1.0E-07
  1.025E+01  7.97965E-03  2.57014E-16  9.17813E+00  8.23186E-04  1.0E-07
  1.050E+01  8.37255E-03  2.39169E-16  8.54087E+00  8.11447E-04  1.0E-07
  1.075E+01  8.77480E-03  2.22843E-16  7.95787E+00  7.92116E-04  1.0E-07
  1.100E+01  9.18641E-03  2.07902E-16  7.42430E+00  7.64532E-04  1.0E-07
  1.125E+01  9.60736E-03  1.94221E-16  6.93574E+00  7.28056E-04  1.0E-07
  1.150E+01  1.00376E-02  1.81687E-16  6.48816E+00  6.82075E-04  1.0E-07
  1.175E+01  1.04773E-02  1.70198E-16  6.07787E+00  6.26014E-04  1.0E-07
  1.200E+01  1.09262E-02  1.59659E-16  5.70152E+00  5.59340E-04  1.0E-07
  1.225E+01  1.13844E-02  1.49984E-16  5.35604E+00  4.81577E-04  1.0E-07
  1.250E+01  1.18520E-02  1.41097E-16  5.03865E+00  3.92305E-04  1.0E-07
  1.275E+01  1.23288E-02  1.32924E-16  4.74680E+00  2.91172E-04  1.0E-07
  1.300E+01  1.28150E-02  1.25402E-16  4.47819E+00  1.77895E-04  1.0E-07
  1.325E+01  1.33104E-02  1.18472E-16  4.23071E+00  5.22650E-05  1.0E-07
  1.350E+01  1.38150E-02  1.12080E-16  4.00245E+00 -8.58529E-05  1.0E-07
  1.375E+01  1.43290E-02  1.06178E-16  3.79168E+00 -2.36516E-04  1.0E-07
  1.400E+01  1.48521E-02  1.00721E-16  3.59682E+00 -3.99708E-04  1.0E-07
  1.425E+01  1.53845E-02  9.56702E-17  3.41645E+00 -5.75337E-04  1.0E-07
  1.450E+01  1.59262E-02  9.09883E-17  3.24925E+00 -7.63245E-04  1.0E-07
  1.475E+01  1.64770E-02  8.66425E-17  3.09406E+00 -9.63204E-04  1.0E-07
  1.500E+01  1.70371E-02  8.26030E-17  2.94981E+00 -1.17493E-03  1.0E-07
  1.525E+01  1.76063E-02  7.88426E-17  2.81552E+00 -1.39807E-03  1.0E-07
  1.550E+01  1.81848E-02  7.53368E-17  2.69033E+00 -1.63224E-03  1.0E-07
