 #
 # Subroutine ELSEPA. Elastic scattering of electrons and positrons
 #                    by neutral atoms and positive ions
 #
 # Projectile: electron
 # Kinetic energy = 1.80000E+03 eV = 6.61488E+01 a.u.
 #
 # Element: Au,  Z =  79,  atomic weight = 1.96967E+02 g/mol
 #
 # Nuclear model: Fermi distribution
 #                Average radius = 6.22560E-13 cm
 #                Skin thickness = 5.46000E-14 cm
 #
 # Number of electrons = 79
 #
 # Electron density: Read from file z_079.den   
 #                   Number of data points =  777
 #                   Volume integral = 7.90000E+01
 #
 # Furness-McCarthy exchange potential
 #
 # Total elastic cross section = 1.92487E-16 cm**2 = 6.87382E+00 a0**2
 # 1st transport cross section = 4.03237E-17 cm**2 = 1.43999E+00 a0**2
 # 2nd transport cross section = 3.62334E-17 cm**2 = 1.29392E+00 a0**2
 #
 #
 # Differential cross section:                       MU=(1-COS(THETA))/2
 #
 #  THETA        MU          DCS          DCS        Sherman      error
 #  (deg)                 (cm**2/sr)   (a0**2/sr)    function
 #----------------------------------------------------------------------
  0.000E+00  0.00000E+00  3.55176E-15  1.26836E+02  0.00000E+00  1.0E-07
  1.000E-04  7.61557E-13  3.55176E-15  1.26836E+02  3.25553E-09  1.0E-07
  1.250E-04  1.18994E-12  3.55176E-15  1.26836E+02  4.06942E-09  1.0E-07
  1.500E-04  1.71346E-12  3.55176E-15  1.26836E+02  4.88330E-09  1.0E-07
  1.750E-04  2.33225E-12  3.55176E-15  1.26836E+02  5.69718E-09  1.0E-07
  2.000E-04  3.04617E-12  3.55176E-15  1.26836E+02  6.51107E-09  1.0E-07
  2.250E-04  3.85530E-12  3.55176E-15  1.26836E+02  7.32495E-09  1.0E-07
  2.500E-04  4.75964E-12  3.55176E-15  1.26836E+02  8.13883E-09  1.0E-07
  2.750E-04  5.75917E-12  3.55176E-15  1.26836E+02  8.95272E-09  1.0E-07
  3.000E-04  6.85391E-12  3.55176E-15  1.26836E+02  9.76660E-09  1.0E-07
  3.250E-04  8.04379E-12  3.55176E-15  1.26836E+02  1.05805E-08  1.0E-07
  3.500E-04  9.32893E-12  3.55176E-15  1.26836E+02  1.13944E-08  1.0E-07
  3.750E-04  1.07092E-11  3.55176E-15  1.26836E+02  1.22083E-08  1.0E-07
  4.000E-04  1.21847E-11  3.55176E-15  1.26836E+02  1.30221E-08  1.0E-07
  4.250E-04  1.37554E-11  3.55176E-15  1.26836E+02  1.38360E-08  1.0E-07
  4.500E-04  1.54213E-11  3.55176E-15  1.26836E+02  1.46499E-08  1.0E-07
  4.750E-04  1.71823E-11  3.55176E-15  1.26836E+02  1.54638E-08  1.0E-07
  5.000E-04  1.90386E-11  3.55176E-15  1.26836E+02  1.62777E-08  1.0E-07
  5.250E-04  2.09900E-11  3.55176E-15  1.26836E+02  1.70916E-08  1.0E-07
  5.500E-04  2.30367E-11  3.55176E-15  1.26836E+02  1.79054E-08  1.0E-07
  5.750E-04  2.51785E-11  3.55176E-15  1.26836E+02  1.87193E-08  1.0E-07
  6.000E-04  2.74156E-11  3.55176E-15  1.26836E+02  1.95332E-08  1.0E-07
  6.250E-04  2.97478E-11  3.55176E-15  1.26836E+02  2.03471E-08  1.0E-07
  6.500E-04  3.21752E-11  3.55176E-15  1.26836E+02  2.11610E-08  1.0E-07
  6.750E-04  3.46979E-11  3.55176E-15  1.26836E+02  2.19749E-08  1.0E-07
  7.000E-04  3.73157E-11  3.55176E-15  1.26836E+02  2.27887E-08  1.0E-07
  7.250E-04  4.00286E-11  3.55176E-15  1.26836E+02  2.36026E-08  1.0E-07
  7.500E-04  4.28368E-11  3.55176E-15  1.26836E+02  2.44165E-08  1.0E-07
  7.750E-04  4.57402E-11  3.55176E-15  1.26836E+02  2.52304E-08  1.0E-07
  8.000E-04  4.87388E-11  3.55176E-15  1.26836E+02  2.60443E-08  1.0E-07
  8.250E-04  5.18325E-11  3.55176E-15  1.26836E+02  2.68582E-08  1.0E-07
  8.500E-04  5.50215E-11  3.55176E-15  1.26836E+02  2.76720E-08  1.0E-07
  8.750E-04  5.83057E-11  3.55176E-15  1.26836E+02  2.84859E-08  1.0E-07
  9.000E-04  6.16850E-11  3.55176E-15  1.26836E+02  2.92998E-08  1.0E-07
  9.250E-04  6.51595E-11  3.55176E-15  1.26836E+02  3.01137E-08  1.0E-07
  9.500E-04  6.87293E-11  3.55176E-15  1.26836E+02  3.09276E-08  1.0E-07
  9.750E-04  7.23943E-11  3.55176E-15  1.26836E+02  3.17415E-08  1.0E-07
  1.000E-03  7.61544E-11  3.55176E-15  1.26836E+02  3.25553E-08  1.0E-07
  1.250E-03  1.18991E-10  3.55176E-15  1.26836E+02  4.06942E-08  1.0E-07
  1.500E-03  1.71347E-10  3.55176E-15  1.26836E+02  4.88330E-08  1.0E-07
  1.750E-03  2.33223E-10  3.55176E-15  1.26836E+02  5.69718E-08  1.0E-07
  2.000E-03  3.04617E-10  3.55176E-15  1.26836E+02  6.51107E-08  1.0E-07
  2.250E-03  3.85531E-10  3.55176E-15  1.26836E+02  7.32495E-08  1.0E-07
  2.500E-03  4.75965E-10  3.55176E-15  1.26836E+02  8.13884E-08  1.0E-07
  2.750E-03  5.75917E-10  3.55176E-15  1.26836E+02  8.95272E-08  1.0E-07
  3.000E-03  6.85389E-10  3.55176E-15  1.26836E+02  9.76660E-08  1.0E-07
  3.250E-03  8.04380E-10  3.55176E-15  1.26836E+02  1.05805E-07  1.0E-07
  3.500E-03  9.32891E-10  3.55176E-15  1.26836E+02  1.13944E-07  1.0E-07
  3.750E-03  1.07092E-09  3.55176E-15  1.26836E+02  1.22083E-07  1.0E-07
  4.000E-03  1.21847E-09  3.55176E-15  1.26836E+02  1.30221E-07  1.0E-07
  4.250E-03  1.37554E-09  3.55176E-15  1.26835E+02  1.38360E-07  1.0E-07
  4.500E-03  1.54213E-09  3.55176E-15  1.26835E+02  1.46499E-07  1.0E-07
  4.750E-03  1.71823E-09  3.55175E-15  1.26835E+02  1.54638E-07  1.0E-07
  5.000E-03  1.90386E-09  3.55175E-15  1.26835E+02  1.62777E-07  1.0E-07
  5.250E-03  2.09900E-09  3.55175E-15  1.26835E+02  1.70916E-07  1.0E-07
  5.500E-03  2.30367E-09  3.55175E-15  1.26835E+02  1.79055E-07  1.0E-07
  5.750E-03  2.51785E-09  3.55175E-15  1.26835E+02  1.87193E-07  1.0E-07
  6.000E-03  2.74156E-09  3.55175E-15  1.26835E+02  1.95332E-07  1.0E-07
  6.250E-03  2.97478E-09  3.55175E-15  1.26835E+02  2.03471E-07  1.0E-07
  6.500E-03  3.21752E-09  3.55175E-15  1.26835E+02  2.11610E-07  1.0E-07
  6.750E-03  3.46978E-09  3.55175E-15  1.26835E+02  2.19749E-07  1.0E-07
  7.000E-03  3.73156E-09  3.55175E-15  1.26835E+02  2.27888E-07  1.0E-07
  7.250E-03  4.00286E-09  3.55175E-15  1.26835E+02  2.36027E-07  1.0E-07
  7.500E-03  4.28368E-09  3.55175E-15  1.26835E+02  2.44165E-07  1.0E-07
  7.750E-03  4.57402E-09  3.55175E-15  1.26835E+02  2.52304E-07  1.0E-07
  8.000E-03  4.87388E-09  3.55175E-15  1.26835E+02  2.60443E-07  1.0E-07
  8.250E-03  5.18326E-09  3.55175E-15  1.26835E+02  2.68582E-07  1.0E-07
  8.500E-03  5.50215E-09  3.55175E-15  1.26835E+02  2.76721E-07  1.0E-07
  8.750E-03  5.83057E-09  3.55175E-15  1.26835E+02  2.84860E-07  1.0E-07
  9.000E-03  6.16850E-09  3.55175E-15  1.26835E+02  2.92999E-07  1.0E-07
  9.250E-03  6.51596E-09  3.55175E-15  1.26835E+02  3.01138E-07  1.0E-07
  9.500E-03  6.87293E-09  3.55174E-15  1.26835E+02  3.09277E-07  1.0E-07
  9.750E-03  7.23942E-09  3.55174E-15  1.26835E+02  3.17416E-07  1.0E-07
  1.000E-02  7.61544E-09  3.55174E-15  1.26835E+02  3.25554E-07  1.0E-07
  1.250E-02  1.18991E-08  3.55173E-15  1.26835E+02  4.06944E-07  1.0E-07
  1.500E-02  1.71347E-08  3.55172E-15  1.26834E+02  4.88334E-07  1.0E-07
  1.750E-02  2.33223E-08  3.55171E-15  1.26834E+02  5.69724E-07  1.0E-07
  2.000E-02  3.04617E-08  3.55170E-15  1.26833E+02  6.51116E-07  1.0E-07
  2.250E-02  3.85531E-08  3.55168E-15  1.26833E+02  7.32508E-07  1.0E-07
  2.500E-02  4.75965E-08  3.55166E-15  1.26832E+02  8.13901E-07  1.0E-07
  2.750E-02  5.75917E-08  3.55164E-15  1.26832E+02  8.95295E-07  1.0E-07
  3.000E-02  6.85389E-08  3.55162E-15  1.26831E+02  9.76690E-07  1.0E-07
  3.250E-02  8.04380E-08  3.55160E-15  1.26830E+02  1.05809E-06  1.0E-07
  3.500E-02  9.32891E-08  3.55157E-15  1.26829E+02  1.13948E-06  1.0E-07
  3.750E-02  1.07092E-07  3.55155E-15  1.26828E+02  1.22088E-06  1.0E-07
  4.000E-02  1.21847E-07  3.55152E-15  1.26827E+02  1.30228E-06  1.0E-07
  4.250E-02  1.37554E-07  3.55149E-15  1.26826E+02  1.38369E-06  1.0E-07
  4.500E-02  1.54213E-07  3.55145E-15  1.26825E+02  1.46509E-06  1.0E-07
  4.750E-02  1.71823E-07  3.55142E-15  1.26823E+02  1.54650E-06  1.0E-07
  5.000E-02  1.90386E-07  3.55138E-15  1.26822E+02  1.62790E-06  1.0E-07
  5.250E-02  2.09900E-07  3.55134E-15  1.26821E+02  1.70931E-06  1.0E-07
  5.500E-02  2.30367E-07  3.55130E-15  1.26819E+02  1.79073E-06  1.0E-07
  5.750E-02  2.51785E-07  3.55126E-15  1.26818E+02  1.87214E-06  1.0E-07
  6.000E-02  2.74156E-07  3.55122E-15  1.26816E+02  1.95356E-06  1.0E-07
  6.250E-02  2.97478E-07  3.55117E-15  1.26815E+02  2.03498E-06  1.0E-07
  6.500E-02  3.21752E-07  3.55112E-15  1.26813E+02  2.11640E-06  1.0E-07
  6.750E-02  3.46978E-07  3.55107E-15  1.26811E+02  2.19782E-06  1.0E-07
  7.000E-02  3.73156E-07  3.55102E-15  1.26809E+02  2.27925E-06  1.0E-07
  7.250E-02  4.00286E-07  3.55097E-15  1.26807E+02  2.36068E-06  1.0E-07
  7.500E-02  4.28368E-07  3.55091E-15  1.26805E+02  2.44211E-06  1.0E-07
  7.750E-02  4.57402E-07  3.55085E-15  1.26803E+02  2.52355E-06  1.0E-07
  8.000E-02  4.87388E-07  3.55079E-15  1.26801E+02  2.60499E-06  1.0E-07
  8.250E-02  5.18325E-07  3.55073E-15  1.26799E+02  2.68643E-06  1.0E-07
  8.500E-02  5.50215E-07  3.55067E-15  1.26797E+02  2.76788E-06  1.0E-07
  8.750E-02  5.83057E-07  3.55060E-15  1.26794E+02  2.84933E-06  1.0E-07
  9.000E-02  6.16850E-07  3.55054E-15  1.26792E+02  2.93078E-06  1.0E-07
  9.250E-02  6.51596E-07  3.55047E-15  1.26790E+02  3.01224E-06  1.0E-07
  9.500E-02  6.87293E-07  3.55040E-15  1.26787E+02  3.09370E-06  1.0E-07
  9.750E-02  7.23942E-07  3.55032E-15  1.26784E+02  3.17517E-06  1.0E-07
  1.000E-01  7.61543E-07  3.55025E-15  1.26782E+02  3.25664E-06  1.0E-07
  1.250E-01  1.18991E-06  3.54940E-15  1.26751E+02  4.07157E-06  1.0E-07
  1.500E-01  1.71347E-06  3.54837E-15  1.26714E+02  4.88702E-06  1.0E-07
  1.750E-01  2.33223E-06  3.54714E-15  1.26671E+02  5.70309E-06  1.0E-07
  2.000E-01  3.04617E-06  3.54573E-15  1.26620E+02  6.51988E-06  1.0E-07
  2.250E-01  3.85531E-06  3.54413E-15  1.26563E+02  7.33750E-06  1.0E-07
  2.500E-01  4.75964E-06  3.54235E-15  1.26500E+02  8.15605E-06  1.0E-07
  2.750E-01  5.75916E-06  3.54038E-15  1.26429E+02  8.97564E-06  1.0E-07
  3.000E-01  6.85388E-06  3.53822E-15  1.26352E+02  9.79636E-06  1.0E-07
  3.250E-01  8.04378E-06  3.53588E-15  1.26268E+02  1.06183E-05  1.0E-07
  3.500E-01  9.32888E-06  3.53335E-15  1.26178E+02  1.14416E-05  1.0E-07
  3.750E-01  1.07092E-05  3.53064E-15  1.26081E+02  1.22664E-05  1.0E-07
  4.000E-01  1.21846E-05  3.52774E-15  1.25978E+02  1.30927E-05  1.0E-07
  4.250E-01  1.37553E-05  3.52467E-15  1.25868E+02  1.39207E-05  1.0E-07
  4.500E-01  1.54212E-05  3.52141E-15  1.25752E+02  1.47504E-05  1.0E-07
  4.750E-01  1.71822E-05  3.51797E-15  1.25629E+02  1.55820E-05  1.0E-07
  5.000E-01  1.90385E-05  3.51434E-15  1.25500E+02  1.64155E-05  1.0E-07
  5.250E-01  2.09899E-05  3.51054E-15  1.25364E+02  1.72512E-05  1.0E-07
  5.500E-01  2.30365E-05  3.50656E-15  1.25222E+02  1.80890E-05  1.0E-07
  5.750E-01  2.51783E-05  3.50241E-15  1.25073E+02  1.89291E-05  1.0E-07
  6.000E-01  2.74153E-05  3.49807E-15  1.24918E+02  1.97716E-05  1.0E-07
  6.250E-01  2.97475E-05  3.49356E-15  1.24757E+02  2.06165E-05  1.0E-07
  6.500E-01  3.21749E-05  3.48888E-15  1.24590E+02  2.14641E-05  1.0E-07
  6.750E-01  3.46974E-05  3.48402E-15  1.24417E+02  2.23144E-05  1.0E-07
  7.000E-01  3.73152E-05  3.47899E-15  1.24237E+02  2.31675E-05  1.0E-07
  7.250E-01  4.00281E-05  3.47379E-15  1.24051E+02  2.40235E-05  1.0E-07
  7.500E-01  4.28362E-05  3.46841E-15  1.23859E+02  2.48825E-05  1.0E-07
  7.750E-01  4.57395E-05  3.46287E-15  1.23661E+02  2.57446E-05  1.0E-07
  8.000E-01  4.87380E-05  3.45716E-15  1.23458E+02  2.66100E-05  1.0E-07
  8.250E-01  5.18317E-05  3.45129E-15  1.23248E+02  2.74787E-05  1.0E-07
  8.500E-01  5.50205E-05  3.44525E-15  1.23032E+02  2.83509E-05  1.0E-07
  8.750E-01  5.83045E-05  3.43904E-15  1.22811E+02  2.92266E-05  1.0E-07
  9.000E-01  6.16838E-05  3.43268E-15  1.22583E+02  3.01059E-05  1.0E-07
  9.250E-01  6.51582E-05  3.42615E-15  1.22350E+02  3.09891E-05  1.0E-07
  9.500E-01  6.87277E-05  3.41947E-15  1.22111E+02  3.18761E-05  1.0E-07
  9.750E-01  7.23925E-05  3.41262E-15  1.21867E+02  3.27670E-05  1.0E-07
  1.000E+00  7.61524E-05  3.40562E-15  1.21617E+02  3.36621E-05  1.0E-07
  1.100E+00  9.21439E-05  3.37610E-15  1.20563E+02  3.72854E-05  1.0E-07
  1.200E+00  1.09658E-04  3.34420E-15  1.19424E+02  4.09827E-05  1.0E-07
  1.300E+00  1.28695E-04  3.31004E-15  1.18204E+02  4.47611E-05  1.0E-07
  1.400E+00  1.49255E-04  3.27375E-15  1.16908E+02  4.86277E-05  1.0E-07
  1.500E+00  1.71338E-04  3.23543E-15  1.15539E+02  5.25895E-05  1.0E-07
  1.600E+00  1.94942E-04  3.19522E-15  1.14103E+02  5.66538E-05  1.0E-07
  1.700E+00  2.20070E-04  3.15324E-15  1.12604E+02  6.08278E-05  1.0E-07
  1.800E+00  2.46720E-04  3.10962E-15  1.11046E+02  6.51191E-05  1.0E-07
  1.900E+00  2.74892E-04  3.06449E-15  1.09435E+02  6.95351E-05  1.0E-07
  2.000E+00  3.04586E-04  3.01799E-15  1.07774E+02  7.40832E-05  1.0E-07
  2.100E+00  3.35803E-04  2.97025E-15  1.06069E+02  7.87712E-05  1.0E-07
  2.200E+00  3.68542E-04  2.92139E-15  1.04325E+02  8.36069E-05  1.0E-07
  2.300E+00  4.02802E-04  2.87155E-15  1.02545E+02  8.85981E-05  1.0E-07
  2.400E+00  4.38585E-04  2.82085E-15  1.00735E+02  9.37527E-05  1.0E-07
  2.500E+00  4.75889E-04  2.76943E-15  9.88980E+01  9.90789E-05  1.0E-07
  2.600E+00  5.14715E-04  2.71739E-15  9.70396E+01  1.04585E-04  1.0E-07
  2.700E+00  5.55063E-04  2.66485E-15  9.51637E+01  1.10278E-04  1.0E-07
  2.800E+00  5.96931E-04  2.61194E-15  9.32741E+01  1.16169E-04  1.0E-07
  2.900E+00  6.40321E-04  2.55875E-15  9.13748E+01  1.22264E-04  1.0E-07
  3.000E+00  6.85233E-04  2.50540E-15  8.94695E+01  1.28572E-04  1.0E-07
  3.100E+00  7.31665E-04  2.45198E-15  8.75618E+01  1.35103E-04  1.0E-07
  3.200E+00  7.79618E-04  2.39858E-15  8.56550E+01  1.41864E-04  1.0E-07
  3.300E+00  8.29092E-04  2.34530E-15  8.37523E+01  1.48866E-04  1.0E-07
  3.400E+00  8.80086E-04  2.29222E-15  8.18567E+01  1.56116E-04  1.0E-07
  3.500E+00  9.32601E-04  2.23941E-15  7.99709E+01  1.63624E-04  1.0E-07
  3.600E+00  9.86636E-04  2.18696E-15  7.80976E+01  1.71400E-04  1.0E-07
  3.700E+00  1.04219E-03  2.13492E-15  7.62393E+01  1.79452E-04  1.0E-07
  3.800E+00  1.09927E-03  2.08336E-15  7.43980E+01  1.87790E-04  1.0E-07
  3.900E+00  1.15786E-03  2.03233E-15  7.25760E+01  1.96424E-04  1.0E-07
  4.000E+00  1.21797E-03  1.98190E-15  7.07750E+01  2.05363E-04  1.0E-07
  4.100E+00  1.27961E-03  1.93211E-15  6.89967E+01  2.14617E-04  1.0E-07
  4.200E+00  1.34276E-03  1.88299E-15  6.72428E+01  2.24196E-04  1.0E-07
  4.300E+00  1.40743E-03  1.83459E-15  6.55145E+01  2.34109E-04  1.0E-07
  4.400E+00  1.47362E-03  1.78695E-15  6.38131E+01  2.44367E-04  1.0E-07
  4.500E+00  1.54133E-03  1.74009E-15  6.21396E+01  2.54980E-04  1.0E-07
  4.600E+00  1.61056E-03  1.69403E-15  6.04950E+01  2.65957E-04  1.0E-07
  4.700E+00  1.68131E-03  1.64881E-15  5.88800E+01  2.77308E-04  1.0E-07
  4.800E+00  1.75357E-03  1.60444E-15  5.72955E+01  2.89045E-04  1.0E-07
  4.900E+00  1.82735E-03  1.56093E-15  5.57418E+01  3.01177E-04  1.0E-07
  5.000E+00  1.90265E-03  1.51830E-15  5.42194E+01  3.13714E-04  1.0E-07
  5.100E+00  1.97947E-03  1.47656E-15  5.27288E+01  3.26667E-04  1.0E-07
  5.200E+00  2.05780E-03  1.43571E-15  5.12701E+01  3.40046E-04  1.0E-07
  5.300E+00  2.13765E-03  1.39576E-15  4.98434E+01  3.53862E-04  1.0E-07
  5.400E+00  2.21902E-03  1.35671E-15  4.84490E+01  3.68123E-04  1.0E-07
  5.500E+00  2.30190E-03  1.31856E-15  4.70867E+01  3.82842E-04  1.0E-07
  5.600E+00  2.38630E-03  1.28131E-15  4.57565E+01  3.98027E-04  1.0E-07
  5.700E+00  2.47222E-03  1.24496E-15  4.44582E+01  4.13690E-04  1.0E-07
  5.800E+00  2.55965E-03  1.20949E-15  4.31917E+01  4.29840E-04  1.0E-07
  5.900E+00  2.64859E-03  1.17491E-15  4.19568E+01  4.46487E-04  1.0E-07
  6.000E+00  2.73905E-03  1.14120E-15  4.07531E+01  4.63641E-04  1.0E-07
  6.100E+00  2.83103E-03  1.10836E-15  3.95802E+01  4.81312E-04  1.0E-07
  6.200E+00  2.92452E-03  1.07637E-15  3.84379E+01  4.99510E-04  1.0E-07
  6.300E+00  3.01952E-03  1.04523E-15  3.73258E+01  5.18243E-04  1.0E-07
  6.400E+00  3.11604E-03  1.01492E-15  3.62433E+01  5.37522E-04  1.0E-07
  6.500E+00  3.21407E-03  9.85421E-16  3.51900E+01  5.57355E-04  1.0E-07
  6.600E+00  3.31362E-03  9.56732E-16  3.41655E+01  5.77751E-04  1.0E-07
  6.700E+00  3.41468E-03  9.28834E-16  3.31693E+01  5.98719E-04  1.0E-07
  6.800E+00  3.51725E-03  9.01712E-16  3.22007E+01  6.20268E-04  1.0E-07
  6.900E+00  3.62133E-03  8.75352E-16  3.12594E+01  6.42404E-04  1.0E-07
  7.000E+00  3.72692E-03  8.49738E-16  3.03447E+01  6.65136E-04  1.0E-07
  7.100E+00  3.83403E-03  8.24855E-16  2.94561E+01  6.88472E-04  1.0E-07
  7.200E+00  3.94265E-03  8.00688E-16  2.85931E+01  7.12418E-04  1.0E-07
  7.300E+00  4.05278E-03  7.77220E-16  2.77550E+01  7.36980E-04  1.0E-07
  7.400E+00  4.16442E-03  7.54437E-16  2.69414E+01  7.62165E-04  1.0E-07
  7.500E+00  4.27757E-03  7.32321E-16  2.61517E+01  7.87978E-04  1.0E-07
  7.600E+00  4.39223E-03  7.10858E-16  2.53852E+01  8.14425E-04  1.0E-07
  7.700E+00  4.50840E-03  6.90031E-16  2.46414E+01  8.41510E-04  1.0E-07
  7.800E+00  4.62608E-03  6.69824E-16  2.39199E+01  8.69236E-04  1.0E-07
  7.900E+00  4.74527E-03  6.50224E-16  2.32199E+01  8.97607E-04  1.0E-07
  8.000E+00  4.86597E-03  6.31212E-16  2.25410E+01  9.26626E-04  1.0E-07
  8.100E+00  4.98817E-03  6.12776E-16  2.18826E+01  9.56294E-04  1.0E-07
  8.200E+00  5.11188E-03  5.94898E-16  2.12442E+01  9.86613E-04  1.0E-07
  8.300E+00  5.23711E-03  5.77565E-16  2.06252E+01  1.01758E-03  1.0E-07
  8.400E+00  5.36383E-03  5.60762E-16  2.00252E+01  1.04920E-03  1.0E-07
  8.500E+00  5.49207E-03  5.44474E-16  1.94435E+01  1.08147E-03  1.0E-07
  8.600E+00  5.62181E-03  5.28687E-16  1.88798E+01  1.11439E-03  1.0E-07
  8.700E+00  5.75306E-03  5.13387E-16  1.83334E+01  1.14795E-03  1.0E-07
  8.800E+00  5.88581E-03  4.98561E-16  1.78039E+01  1.18215E-03  1.0E-07
  8.900E+00  6.02007E-03  4.84194E-16  1.72909E+01  1.21698E-03  1.0E-07
  9.000E+00  6.15583E-03  4.70274E-16  1.67938E+01  1.25244E-03  1.0E-07
  9.100E+00  6.29310E-03  4.56788E-16  1.63122E+01  1.28852E-03  1.0E-07
  9.200E+00  6.43187E-03  4.43723E-16  1.58456E+01  1.32521E-03  1.0E-07
  9.300E+00  6.57214E-03  4.31067E-16  1.53937E+01  1.36251E-03  1.0E-07
  9.400E+00  6.71392E-03  4.18807E-16  1.49559E+01  1.40039E-03  1.0E-07
  9.500E+00  6.85720E-03  4.06933E-16  1.45318E+01  1.43885E-03  1.0E-07
  9.600E+00  7.00198E-03  3.95431E-16  1.41211E+01  1.47788E-03  1.0E-07
  9.700E+00  7.14827E-03  3.84292E-16  1.37233E+01  1.51746E-03  1.0E-07
  9.800E+00  7.29605E-03  3.73504E-16  1.33381E+01  1.55757E-03  1.0E-07
  9.900E+00  7.44534E-03  3.63057E-16  1.29650E+01  1.59819E-03  1.0E-07
  1.000E+01  7.59612E-03  3.52939E-16  1.26037E+01  1.63931E-03  1.0E-07
  1.025E+01  7.97965E-03  3.29024E-16  1.17497E+01  1.74415E-03  1.0E-07
  1.050E+01  8.37255E-03  3.06958E-16  1.09617E+01  1.85158E-03  1.0E-07
  1.075E+01  8.77480E-03  2.86599E-16  1.02346E+01  1.96119E-03  1.0E-07
  1.100E+01  9.18641E-03  2.67817E-16  9.56392E+00  2.07248E-03  1.0E-07
  1.125E+01  9.60736E-03  2.50489E-16  8.94512E+00  2.18490E-03  1.0E-07
  1.150E+01  1.00376E-02  2.34501E-16  8.37419E+00  2.29783E-03  1.0E-07
  1.175E+01  1.04773E-02  2.19749E-16  7.84737E+00  2.41061E-03  1.0E-07
  1.200E+01  1.09262E-02  2.06133E-16  7.36115E+00  2.52250E-03  1.0E-07
  1.225E+01  1.13844E-02  1.93565E-16  6.91232E+00  2.63270E-03  1.0E-07
  1.250E+01  1.18520E-02  1.81959E-16  6.49788E+00  2.74038E-03  1.0E-07
  1.275E+01  1.23288E-02  1.71240E-16  6.11508E+00  2.84466E-03  1.0E-07
  1.300E+01  1.28150E-02  1.61335E-16  5.76137E+00  2.94461E-03  1.0E-07
  1.325E+01  1.33104E-02  1.52179E-16  5.43440E+00  3.03930E-03  1.0E-07
  1.350E+01  1.38150E-02  1.43711E-16  5.13200E+00  3.12774E-03  1.0E-07
  1.375E+01  1.43290E-02  1.35875E-16  4.85217E+00  3.20895E-03  1.0E-07
  1.400E+01  1.48521E-02  1.28619E-16  4.59308E+00  3.28196E-03  1.0E-07
  1.425E+01  1.53845E-02  1.21897E-16  4.35304E+00  3.34578E-03  1.0E-07
  1.450E+01  1.59262E-02  1.15665E-16  4.13048E+00  3.39946E-03  1.0E-07
  1.475E+01  1.64770E-02  1.09882E-16  3.92397E+00  3.44205E-03  1.0E-07
  1.500E+01  1.70371E-02  1.04512E-16  3.73220E+00  3.47267E-03  1.0E-07
  1.525E+01  1.76063E-02  9.95212E-17  3.55397E+00  3.49044E-03  1.0E-07
  1.550E+01  1.81848E-02  9.48780E-17  3.38815E+00  3.49457E-03  1.0E-07
