 #
 # Subroutine ELSEPA. Elastic scattering of electrons and positrons
 #                    by neutral atoms and positive ions
 #
 # Projectile: electron
 # Kinetic energy = 4.50000E+03 eV = 1.65372E+02 a.u.
 #
 # Element:  C,  Z =   6,  atomic weight = 1.20107E+01 g/mol
 #
 # Nuclear model: Fermi distribution
 #                Average radius = 2.45042E-13 cm
 #                Skin thickness = 5.46000E-14 cm
 #
 # Number of electrons =  6
 #
 # Electron density: Read from file z_006.den   
 #                   Number of data points =  725
 #                   Volume integral = 6.00000E+00
 #
 # Furness-McCarthy exchange potential
 #
 # LDA absorption potential (only electron-hole excitations):
 #                           Delta = 1.26000E+00 eV
 #                            Aabs = 2.00000E+00
 #
 # Correlation-polarization potential (LDA):
 #                           Alpha = 1.76000E-24 cm**3
 #                            Bpol = 1.66771E+01
 #
 # Total elastic cross section = 1.35369E-17 cm**2 = 4.83411E-01 a0**2
 # 1st transport cross section = 2.61230E-19 cm**2 = 9.32868E-03 a0**2
 # 2nd transport cross section = 6.18938E-19 cm**2 = 2.21027E-02 a0**2
 #
 #    Absorption cross section = 1.29656E-17 cm**2 = 4.63011E-01 a0**2
 #   Grand total cross section = 2.65036E-17 cm**2 = 9.46462E-01 a0**2
 #
 #
 # Differential cross section:                       MU=(1-COS(THETA))/2
 #
 #  THETA        MU          DCS          DCS        Sherman      error
 #  (deg)                 (cm**2/sr)   (a0**2/sr)    function
 #----------------------------------------------------------------------
  0.000E+00  0.00000E+00  1.07547E-15  3.84059E+01  0.00000E+00  3.9E-04
  1.000E-04  7.61557E-13  1.07547E-15  3.84059E+01  7.46543E-11  3.9E-04
  1.250E-04  1.18994E-12  1.07547E-15  3.84058E+01  9.33179E-11  3.9E-04
  1.500E-04  1.71346E-12  1.07547E-15  3.84058E+01  1.11981E-10  3.9E-04
  1.750E-04  2.33225E-12  1.07547E-15  3.84058E+01  1.30645E-10  3.9E-04
  2.000E-04  3.04617E-12  1.07547E-15  3.84058E+01  1.49309E-10  3.9E-04
  2.250E-04  3.85530E-12  1.07547E-15  3.84058E+01  1.67972E-10  3.9E-04
  2.500E-04  4.75964E-12  1.07547E-15  3.84058E+01  1.86636E-10  3.9E-04
  2.750E-04  5.75917E-12  1.07547E-15  3.84058E+01  2.05299E-10  3.9E-04
  3.000E-04  6.85391E-12  1.07547E-15  3.84058E+01  2.23963E-10  3.9E-04
  3.250E-04  8.04379E-12  1.07547E-15  3.84058E+01  2.42626E-10  3.9E-04
  3.500E-04  9.32893E-12  1.07547E-15  3.84058E+01  2.61290E-10  3.9E-04
  3.750E-04  1.07092E-11  1.07547E-15  3.84058E+01  2.79953E-10  3.9E-04
  4.000E-04  1.21847E-11  1.07547E-15  3.84058E+01  2.98617E-10  3.9E-04
  4.250E-04  1.37554E-11  1.07547E-15  3.84058E+01  3.17280E-10  3.9E-04
  4.500E-04  1.54213E-11  1.07547E-15  3.84058E+01  3.35944E-10  3.9E-04
  4.750E-04  1.71823E-11  1.07547E-15  3.84058E+01  3.54607E-10  3.9E-04
  5.000E-04  1.90386E-11  1.07547E-15  3.84058E+01  3.73270E-10  3.9E-04
  5.250E-04  2.09900E-11  1.07547E-15  3.84058E+01  3.91934E-10  3.9E-04
  5.500E-04  2.30367E-11  1.07547E-15  3.84058E+01  4.10597E-10  3.9E-04
  5.750E-04  2.51785E-11  1.07547E-15  3.84058E+01  4.29260E-10  3.9E-04
  6.000E-04  2.74156E-11  1.07547E-15  3.84058E+01  4.47924E-10  3.9E-04
  6.250E-04  2.97478E-11  1.07547E-15  3.84058E+01  4.66587E-10  3.9E-04
  6.500E-04  3.21752E-11  1.07547E-15  3.84058E+01  4.85250E-10  3.9E-04
  6.750E-04  3.46979E-11  1.07547E-15  3.84058E+01  5.03913E-10  3.9E-04
  7.000E-04  3.73157E-11  1.07547E-15  3.84058E+01  5.22577E-10  3.9E-04
  7.250E-04  4.00286E-11  1.07547E-15  3.84058E+01  5.41240E-10  3.9E-04
  7.500E-04  4.28368E-11  1.07547E-15  3.84058E+01  5.59903E-10  3.9E-04
  7.750E-04  4.57402E-11  1.07547E-15  3.84058E+01  5.78566E-10  3.9E-04
  8.000E-04  4.87388E-11  1.07547E-15  3.84058E+01  5.97229E-10  3.9E-04
  8.250E-04  5.18325E-11  1.07547E-15  3.84058E+01  6.15892E-10  3.9E-04
  8.500E-04  5.50215E-11  1.07547E-15  3.84058E+01  6.34555E-10  3.9E-04
  8.750E-04  5.83057E-11  1.07547E-15  3.84058E+01  6.53218E-10  3.9E-04
  9.000E-04  6.16850E-11  1.07547E-15  3.84058E+01  6.71881E-10  3.9E-04
  9.250E-04  6.51595E-11  1.07547E-15  3.84058E+01  6.90544E-10  3.9E-04
  9.500E-04  6.87293E-11  1.07547E-15  3.84057E+01  7.09207E-10  3.9E-04
  9.750E-04  7.23943E-11  1.07547E-15  3.84057E+01  7.27870E-10  3.9E-04
  1.000E-03  7.61544E-11  1.07547E-15  3.84057E+01  7.46532E-10  3.9E-04
  1.250E-03  1.18991E-10  1.07547E-15  3.84057E+01  9.33158E-10  3.9E-04
  1.500E-03  1.71347E-10  1.07547E-15  3.84056E+01  1.11978E-09  3.9E-04
  1.750E-03  2.33223E-10  1.07546E-15  3.84055E+01  1.30639E-09  3.9E-04
  2.000E-03  3.04617E-10  1.07546E-15  3.84054E+01  1.49300E-09  3.9E-04
  2.250E-03  3.85531E-10  1.07546E-15  3.84053E+01  1.67960E-09  3.9E-04
  2.500E-03  4.75965E-10  1.07545E-15  3.84051E+01  1.86618E-09  3.9E-04
  2.750E-03  5.75917E-10  1.07545E-15  3.84050E+01  2.05276E-09  3.9E-04
  3.000E-03  6.85389E-10  1.07544E-15  3.84048E+01  2.23933E-09  3.9E-04
  3.250E-03  8.04380E-10  1.07544E-15  3.84047E+01  2.42588E-09  3.9E-04
  3.500E-03  9.32891E-10  1.07543E-15  3.84045E+01  2.61242E-09  3.9E-04
  3.750E-03  1.07092E-09  1.07543E-15  3.84043E+01  2.79895E-09  3.9E-04
  4.000E-03  1.21847E-09  1.07542E-15  3.84040E+01  2.98546E-09  3.9E-04
  4.250E-03  1.37554E-09  1.07542E-15  3.84038E+01  3.17195E-09  3.9E-04
  4.500E-03  1.54213E-09  1.07541E-15  3.84036E+01  3.35843E-09  3.9E-04
  4.750E-03  1.71823E-09  1.07540E-15  3.84033E+01  3.54489E-09  3.9E-04
  5.000E-03  1.90386E-09  1.07539E-15  3.84030E+01  3.73132E-09  3.9E-04
  5.250E-03  2.09900E-09  1.07539E-15  3.84027E+01  3.91774E-09  3.9E-04
  5.500E-03  2.30367E-09  1.07538E-15  3.84024E+01  4.10413E-09  3.9E-04
  5.750E-03  2.51785E-09  1.07537E-15  3.84021E+01  4.29050E-09  3.9E-04
  6.000E-03  2.74156E-09  1.07536E-15  3.84018E+01  4.47685E-09  3.9E-04
  6.250E-03  2.97478E-09  1.07535E-15  3.84014E+01  4.66317E-09  3.9E-04
  6.500E-03  3.21752E-09  1.07534E-15  3.84011E+01  4.84947E-09  3.9E-04
  6.750E-03  3.46978E-09  1.07533E-15  3.84007E+01  5.03574E-09  3.9E-04
  7.000E-03  3.73156E-09  1.07532E-15  3.84003E+01  5.22198E-09  3.9E-04
  7.250E-03  4.00286E-09  1.07531E-15  3.83999E+01  5.40819E-09  3.9E-04
  7.500E-03  4.28368E-09  1.07530E-15  3.83995E+01  5.59437E-09  3.9E-04
  7.750E-03  4.57402E-09  1.07528E-15  3.83991E+01  5.78052E-09  3.9E-04
  8.000E-03  4.87388E-09  1.07527E-15  3.83986E+01  5.96664E-09  3.9E-04
  8.250E-03  5.18326E-09  1.07526E-15  3.83981E+01  6.15272E-09  3.9E-04
  8.500E-03  5.50215E-09  1.07524E-15  3.83977E+01  6.33877E-09  3.9E-04
  8.750E-03  5.83057E-09  1.07523E-15  3.83972E+01  6.52478E-09  3.9E-04
  9.000E-03  6.16850E-09  1.07522E-15  3.83967E+01  6.71076E-09  3.9E-04
  9.250E-03  6.51596E-09  1.07520E-15  3.83962E+01  6.89670E-09  3.9E-04
  9.500E-03  6.87293E-09  1.07519E-15  3.83956E+01  7.08260E-09  3.9E-04
  9.750E-03  7.23942E-09  1.07517E-15  3.83951E+01  7.26846E-09  3.9E-04
  1.000E-02  7.61544E-09  1.07516E-15  3.83945E+01  7.45428E-09  3.9E-04
  1.250E-02  1.18991E-08  1.07498E-15  3.83882E+01  9.31002E-09  3.9E-04
  1.500E-02  1.71347E-08  1.07476E-15  3.83804E+01  1.11606E-08  3.8E-04
  1.750E-02  2.33223E-08  1.07450E-15  3.83713E+01  1.30049E-08  3.8E-04
  2.000E-02  3.04617E-08  1.07421E-15  3.83607E+01  1.48419E-08  3.8E-04
  2.250E-02  3.85531E-08  1.07387E-15  3.83487E+01  1.66707E-08  3.8E-04
  2.500E-02  4.75965E-08  1.07350E-15  3.83354E+01  1.84902E-08  3.7E-04
  2.750E-02  5.75917E-08  1.07309E-15  3.83207E+01  2.02994E-08  3.7E-04
  3.000E-02  6.85389E-08  1.07264E-15  3.83046E+01  2.20974E-08  3.6E-04
  3.250E-02  8.04380E-08  1.07215E-15  3.82872E+01  2.38833E-08  3.6E-04
  3.500E-02  9.32891E-08  1.07162E-15  3.82684E+01  2.56559E-08  3.5E-04
  3.750E-02  1.07092E-07  1.07106E-15  3.82482E+01  2.74144E-08  3.5E-04
  4.000E-02  1.21847E-07  1.07046E-15  3.82268E+01  2.91580E-08  3.4E-04
  4.250E-02  1.37554E-07  1.06982E-15  3.82040E+01  3.08856E-08  3.4E-04
  4.500E-02  1.54213E-07  1.06915E-15  3.81799E+01  3.25964E-08  3.3E-04
  4.750E-02  1.71823E-07  1.06844E-15  3.81545E+01  3.42896E-08  3.3E-04
  5.000E-02  1.90386E-07  1.06769E-15  3.81279E+01  3.59643E-08  3.2E-04
  5.250E-02  2.09900E-07  1.06691E-15  3.80999E+01  3.76196E-08  3.1E-04
  5.500E-02  2.30367E-07  1.06609E-15  3.80707E+01  3.92548E-08  3.0E-04
  5.750E-02  2.51785E-07  1.06524E-15  3.80403E+01  4.08692E-08  3.0E-04
  6.000E-02  2.74156E-07  1.06435E-15  3.80087E+01  4.24619E-08  2.9E-04
  6.250E-02  2.97478E-07  1.06343E-15  3.79758E+01  4.40322E-08  2.8E-04
  6.500E-02  3.21752E-07  1.06248E-15  3.79418E+01  4.55795E-08  2.7E-04
  6.750E-02  3.46978E-07  1.06149E-15  3.79066E+01  4.71031E-08  2.7E-04
  7.000E-02  3.73156E-07  1.06048E-15  3.78703E+01  4.86024E-08  2.6E-04
  7.250E-02  4.00286E-07  1.05943E-15  3.78328E+01  5.00767E-08  2.5E-04
  7.500E-02  4.28368E-07  1.05835E-15  3.77942E+01  5.15254E-08  2.4E-04
  7.750E-02  4.57402E-07  1.05723E-15  3.77545E+01  5.29481E-08  2.3E-04
  8.000E-02  4.87388E-07  1.05609E-15  3.77138E+01  5.43442E-08  2.2E-04
  8.250E-02  5.18325E-07  1.05492E-15  3.76719E+01  5.57132E-08  2.1E-04
  8.500E-02  5.50215E-07  1.05372E-15  3.76291E+01  5.70548E-08  2.0E-04
  8.750E-02  5.83057E-07  1.05249E-15  3.75852E+01  5.83684E-08  1.9E-04
  9.000E-02  6.16850E-07  1.05124E-15  3.75404E+01  5.96537E-08  1.8E-04
  9.250E-02  6.51596E-07  1.04996E-15  3.74946E+01  6.09103E-08  1.7E-04
  9.500E-02  6.87293E-07  1.04865E-15  3.74478E+01  6.21381E-08  1.6E-04
  9.750E-02  7.23942E-07  1.04731E-15  3.74001E+01  6.33366E-08  1.5E-04
  1.000E-01  7.61543E-07  1.04595E-15  3.73515E+01  6.45057E-08  1.4E-04
  1.250E-01  1.18991E-06  1.03110E-15  3.68213E+01  7.45543E-08  4.2E-05
  1.500E-01  1.71347E-06  1.01447E-15  3.62274E+01  8.16932E-08  4.8E-05
  1.750E-01  2.33223E-06  9.96726E-16  3.55937E+01  8.63255E-08  1.2E-04
  2.000E-01  3.04617E-06  9.78502E-16  3.49429E+01  8.91913E-08  1.6E-04
  2.250E-01  3.85531E-06  9.60338E-16  3.42943E+01  9.12663E-08  1.6E-04
  2.500E-01  4.75964E-06  9.42662E-16  3.36631E+01  9.36178E-08  1.4E-04
  2.750E-01  5.75916E-06  9.25772E-16  3.30599E+01  9.72374E-08  9.3E-05
  3.000E-01  6.85388E-06  9.09841E-16  3.24910E+01  1.02882E-07  3.2E-05
  3.250E-01  8.04378E-06  8.94926E-16  3.19584E+01  1.10957E-07  3.2E-05
  3.500E-01  9.32888E-06  8.80993E-16  3.14608E+01  1.21457E-07  8.5E-05
  3.750E-01  1.07092E-05  8.67944E-16  3.09948E+01  1.33990E-07  1.2E-04
  4.000E-01  1.21846E-05  8.55643E-16  3.05556E+01  1.47860E-07  1.3E-04
  4.250E-01  1.37553E-05  8.43945E-16  3.01378E+01  1.62206E-07  1.2E-04
  4.500E-01  1.54212E-05  8.32715E-16  2.97368E+01  1.76161E-07  8.1E-05
  4.750E-01  1.71822E-05  8.21846E-16  2.93486E+01  1.89000E-07  3.2E-05
  5.000E-01  1.90385E-05  8.11264E-16  2.89708E+01  2.00259E-07  2.2E-05
  5.250E-01  2.09899E-05  8.00933E-16  2.86018E+01  2.09797E-07  6.9E-05
  5.500E-01  2.30365E-05  7.90846E-16  2.82416E+01  2.17805E-07  1.0E-04
  5.750E-01  2.51783E-05  7.81021E-16  2.78908E+01  2.24751E-07  1.1E-04
  6.000E-01  2.74153E-05  7.71486E-16  2.75503E+01  2.31279E-07  1.0E-04
  6.250E-01  2.97475E-05  7.62271E-16  2.72212E+01  2.38084E-07  7.5E-05
  6.500E-01  3.21749E-05  7.53398E-16  2.69043E+01  2.45779E-07  3.3E-05
  6.750E-01  3.46974E-05  7.44874E-16  2.65999E+01  2.54785E-07  1.5E-05
  7.000E-01  3.73152E-05  7.36693E-16  2.63078E+01  2.65262E-07  5.8E-05
  7.250E-01  4.00281E-05  7.28830E-16  2.60270E+01  2.77090E-07  9.0E-05
  7.500E-01  4.28362E-05  7.21253E-16  2.57564E+01  2.89909E-07  1.0E-04
  7.750E-01  4.57395E-05  7.13921E-16  2.54946E+01  3.03196E-07  9.7E-05
  8.000E-01  4.87380E-05  7.06793E-16  2.52400E+01  3.16378E-07  7.3E-05
  8.250E-01  5.18317E-05  6.99835E-16  2.49916E+01  3.28941E-07  3.5E-05
  8.500E-01  5.50205E-05  6.93019E-16  2.47482E+01  3.40531E-07  8.9E-06
  8.750E-01  5.83045E-05  6.86330E-16  2.45093E+01  3.51012E-07  5.0E-05
  9.000E-01  6.16838E-05  6.79762E-16  2.42747E+01  3.60485E-07  8.1E-05
  9.250E-01  6.51582E-05  6.73318E-16  2.40446E+01  3.69261E-07  9.6E-05
  9.500E-01  6.87277E-05  6.67006E-16  2.38192E+01  3.77792E-07  9.2E-05
  9.750E-01  7.23925E-05  6.60835E-16  2.35988E+01  3.86578E-07  7.1E-05
  1.000E+00  7.61524E-05  6.54813E-16  2.33838E+01  3.96069E-07  3.7E-05
  1.100E+00  9.21439E-05  6.32177E-16  2.25754E+01  4.44426E-07  8.9E-05
  1.200E+00  1.09658E-04  6.11241E-16  2.18278E+01  4.98238E-07  5.9E-07
  1.300E+00  1.28695E-04  5.91268E-16  2.11146E+01  5.42700E-07  8.5E-05
  1.400E+00  1.49255E-04  5.72304E-16  2.04373E+01  5.91142E-07  3.2E-05
  1.500E+00  1.71338E-04  5.54322E-16  1.97952E+01  6.51091E-07  6.9E-05
  1.600E+00  1.94942E-04  5.36892E-16  1.91728E+01  7.07603E-07  5.7E-05
  1.700E+00  2.20070E-04  5.19889E-16  1.85656E+01  7.60986E-07  4.5E-05
  1.800E+00  2.46720E-04  5.03442E-16  1.79782E+01  8.24898E-07  7.3E-05
  1.900E+00  2.74892E-04  4.87405E-16  1.74056E+01  8.93031E-07  1.6E-05
  2.000E+00  3.04586E-04  4.71609E-16  1.68415E+01  9.55957E-07  7.7E-05
  2.100E+00  3.35803E-04  4.56144E-16  1.62892E+01  1.02402E-06  1.4E-05
  2.200E+00  3.68542E-04  4.41041E-16  1.57498E+01  1.10128E-06  7.0E-05
  2.300E+00  4.02802E-04  4.26170E-16  1.52188E+01  1.17630E-06  4.1E-05
  2.400E+00  4.38585E-04  4.11543E-16  1.46965E+01  1.25067E-06  5.3E-05
  2.500E+00  4.75889E-04  3.97250E-16  1.41861E+01  1.33445E-06  6.1E-05
  2.600E+00  5.14715E-04  3.83246E-16  1.36859E+01  1.42138E-06  2.8E-05
  2.700E+00  5.55063E-04  3.69484E-16  1.31945E+01  1.50482E-06  7.1E-05
  2.800E+00  5.96931E-04  3.56036E-16  1.27143E+01  1.59379E-06  3.9E-07
  2.900E+00  6.40321E-04  3.42924E-16  1.22460E+01  1.69030E-06  7.1E-05
  3.000E+00  6.85233E-04  3.30097E-16  1.17880E+01  1.78456E-06  2.7E-05
  3.100E+00  7.31665E-04  3.17578E-16  1.13409E+01  1.87913E-06  6.0E-05
  3.200E+00  7.79618E-04  3.05416E-16  1.09066E+01  1.98210E-06  5.0E-05
  3.300E+00  8.29092E-04  2.93585E-16  1.04841E+01  2.08688E-06  4.0E-05
  3.400E+00  8.80086E-04  2.82066E-16  1.00728E+01  2.18848E-06  6.6E-05
  3.500E+00  9.32601E-04  2.70900E-16  9.67401E+00  2.29552E-06  1.4E-05
  3.600E+00  9.86636E-04  2.60090E-16  9.28800E+00  2.40849E-06  7.2E-05
  3.700E+00  1.04219E-03  2.49606E-16  8.91358E+00  2.51834E-06  1.4E-05
  3.800E+00  1.09927E-03  2.39458E-16  8.55121E+00  2.62865E-06  6.7E-05
  3.900E+00  1.15786E-03  2.29670E-16  8.20165E+00  2.74639E-06  4.0E-05
  4.000E+00  1.21797E-03  2.20215E-16  7.86404E+00  2.86430E-06  5.1E-05
  4.100E+00  1.27961E-03  2.11082E-16  7.53789E+00  2.97858E-06  6.0E-05
  4.200E+00  1.34276E-03  2.02289E-16  7.22387E+00  3.09808E-06  2.8E-05
  4.300E+00  1.40743E-03  1.93828E-16  6.92172E+00  3.22200E-06  7.1E-05
  4.400E+00  1.47362E-03  1.85674E-16  6.63053E+00  3.34144E-06  6.8E-07
  4.500E+00  1.54133E-03  1.77831E-16  6.35046E+00  3.46127E-06  7.2E-05
  4.600E+00  1.61056E-03  1.70304E-16  6.08167E+00  3.58783E-06  2.7E-05
  4.700E+00  1.68131E-03  1.63071E-16  5.82339E+00  3.71277E-06  6.2E-05
  4.800E+00  1.75357E-03  1.56121E-16  5.57518E+00  3.83341E-06  5.2E-05
  4.900E+00  1.82735E-03  1.49460E-16  5.33731E+00  3.95933E-06  4.2E-05
  5.000E+00  1.90265E-03  1.43076E-16  5.10934E+00  4.08828E-06  6.8E-05
  5.100E+00  1.97947E-03  1.36950E-16  4.89056E+00  4.21125E-06  1.5E-05
  5.200E+00  2.05780E-03  1.31080E-16  4.68096E+00  4.33473E-06  7.5E-05
  5.300E+00  2.13765E-03  1.25466E-16  4.48048E+00  4.46452E-06  1.4E-05
  5.400E+00  2.21902E-03  1.20088E-16  4.28842E+00  4.59079E-06  7.0E-05
  5.500E+00  2.30190E-03  1.14937E-16  4.10447E+00  4.71213E-06  4.1E-05
  5.600E+00  2.38630E-03  1.10013E-16  3.92865E+00  4.83911E-06  5.5E-05
  5.700E+00  2.47222E-03  1.05306E-16  3.76055E+00  4.96766E-06  6.3E-05
  5.800E+00  2.55965E-03  1.00800E-16  3.59963E+00  5.08854E-06  3.0E-05
  5.900E+00  2.64859E-03  9.64930E-17  3.44583E+00  5.21021E-06  7.5E-05
  6.000E+00  2.73905E-03  9.23810E-17  3.29899E+00  5.33772E-06  1.5E-06
  6.100E+00  2.83103E-03  8.84489E-17  3.15857E+00  5.45941E-06  7.6E-05
  6.200E+00  2.92452E-03  8.46898E-17  3.02433E+00  5.57541E-06  2.8E-05
  6.300E+00  3.01952E-03  8.11026E-17  2.89623E+00  5.69734E-06  6.5E-05
  6.400E+00  3.11604E-03  7.76771E-17  2.77390E+00  5.81885E-06  5.4E-05
  6.500E+00  3.21407E-03  7.44023E-17  2.65696E+00  5.93050E-06  4.5E-05
  6.600E+00  3.31362E-03  7.12766E-17  2.54533E+00  6.04304E-06  7.1E-05
  6.700E+00  3.41468E-03  6.82950E-17  2.43886E+00  6.16044E-06  1.7E-05
  6.800E+00  3.51725E-03  6.54462E-17  2.33713E+00  6.26890E-06  7.8E-05
  6.900E+00  3.62133E-03  6.27255E-17  2.23997E+00  6.37053E-06  1.3E-05
  7.000E+00  3.72692E-03  6.01310E-17  2.14732E+00  6.47799E-06  7.3E-05
  7.100E+00  3.83403E-03  5.76546E-17  2.05888E+00  6.58213E-06  4.2E-05
  7.200E+00  3.94265E-03  5.52885E-17  1.97439E+00  6.67357E-06  5.7E-05
  7.300E+00  4.05278E-03  5.30312E-17  1.89378E+00  6.76578E-06  6.4E-05
  7.400E+00  4.16442E-03  5.08783E-17  1.81690E+00  6.86111E-06  3.3E-05
  7.500E+00  4.27757E-03  4.88216E-17  1.74345E+00  6.94360E-06  7.7E-05
  7.600E+00  4.39223E-03  4.68578E-17  1.67332E+00  7.01791E-06  3.0E-06
  7.700E+00  4.50840E-03  4.49851E-17  1.60645E+00  7.09765E-06  7.8E-05
  7.800E+00  4.62608E-03  4.31971E-17  1.54260E+00  7.17042E-06  2.7E-05
  7.900E+00  4.74527E-03  4.14884E-17  1.48158E+00  7.22742E-06  6.7E-05
  8.000E+00  4.86597E-03  3.98580E-17  1.42335E+00  7.28520E-06  5.3E-05
  8.100E+00  4.98817E-03  3.83022E-17  1.36779E+00  7.34401E-06  4.7E-05
  8.200E+00  5.11188E-03  3.68149E-17  1.31468E+00  7.38577E-06  7.1E-05
  8.300E+00  5.23711E-03  3.53941E-17  1.26395E+00  7.41847E-06  1.9E-05
  8.400E+00  5.36383E-03  3.40383E-17  1.21553E+00  7.45639E-06  7.8E-05
  8.500E+00  5.49207E-03  3.27425E-17  1.16925E+00  7.48349E-06  1.1E-05
  8.600E+00  5.62181E-03  3.15031E-17  1.12500E+00  7.49223E-06  7.3E-05
  8.700E+00  5.75306E-03  3.03195E-17  1.08273E+00  7.50250E-06  3.9E-05
  8.800E+00  5.88581E-03  2.91886E-17  1.04235E+00  7.51182E-06  5.7E-05
  8.900E+00  6.02007E-03  2.81063E-17  1.00369E+00  7.50019E-06  6.0E-05
  9.000E+00  6.15583E-03  2.70712E-17  9.66731E-01  7.47962E-06  3.4E-05
  9.100E+00  6.29310E-03  2.60822E-17  9.31412E-01  7.46459E-06  7.2E-05
  9.200E+00  6.43187E-03  2.51356E-17  8.97607E-01  7.43506E-06  5.7E-06
  9.300E+00  6.57214E-03  2.42289E-17  8.65231E-01  7.38545E-06  7.4E-05
  9.400E+00  6.71392E-03  2.33619E-17  8.34269E-01  7.33903E-06  2.2E-05
  9.500E+00  6.85720E-03  2.25322E-17  8.04640E-01  7.28982E-06  6.4E-05
  9.600E+00  7.00198E-03  2.17369E-17  7.76237E-01  7.21621E-06  4.6E-05
  9.700E+00  7.14827E-03  2.09751E-17  7.49036E-01  7.13476E-06  4.5E-05
  9.800E+00  7.29605E-03  2.02462E-17  7.23004E-01  7.05949E-06  6.3E-05
  9.900E+00  7.44534E-03  1.95472E-17  6.98044E-01  6.96598E-06  2.1E-05
  1.000E+01  7.59612E-03  1.88768E-17  6.74102E-01  6.85136E-06  6.9E-05
  1.025E+01  7.97965E-03  1.73207E-17  6.18532E-01  6.55995E-06  2.7E-05
  1.050E+01  8.37255E-03  1.59180E-17  5.68440E-01  6.19631E-06  4.9E-05
  1.075E+01  8.77480E-03  1.46518E-17  5.23226E-01  5.75617E-06  5.4E-05
  1.100E+01  9.18641E-03  1.35081E-17  4.82385E-01  5.26521E-06  1.4E-05
  1.125E+01  9.60736E-03  1.24734E-17  4.45433E-01  4.71270E-06  5.8E-05
  1.150E+01  1.00376E-02  1.15354E-17  4.11937E-01  4.06875E-06  2.2E-05
  1.175E+01  1.04773E-02  1.06843E-17  3.81543E-01  3.35060E-06  3.9E-05
  1.200E+01  1.09262E-02  9.91127E-18  3.53938E-01  2.57907E-06  4.3E-05
  1.225E+01  1.13844E-02  9.20767E-18  3.28812E-01  1.72319E-06  8.1E-06
  1.250E+01  1.18520E-02  8.56617E-18  3.05903E-01  0.00000E+00  4.2E-05
  1.275E+01  1.23288E-02  7.98079E-18  2.84999E-01  0.00000E+00  1.9E-05
  1.300E+01  1.28150E-02  7.44574E-18  2.65892E-01 -1.32508E-06  2.3E-05
  1.325E+01  1.33104E-02  6.95556E-18  2.48388E-01 -2.50376E-06  3.1E-05
  1.350E+01  1.38150E-02  6.50593E-18  2.32331E-01 -3.76775E-06  2.5E-06
  1.375E+01  1.43290E-02  6.09311E-18  2.17589E-01 -5.07932E-06  2.4E-05
