 #
 # Subroutine ELSEPA. Elastic scattering of electrons and positrons
 #                    by neutral atoms and positive ions
 #
 # Projectile: electron
 # Kinetic energy = 4.00000E+02 eV = 1.46997E+01 a.u.
 #
 # Element:  C,  Z =   6,  atomic weight = 1.20107E+01 g/mol
 #
 # Nuclear model: Fermi distribution
 #                Average radius = 2.45042E-13 cm
 #                Skin thickness = 5.46000E-14 cm
 #
 # Number of electrons =  6
 #
 # Electron density: Read from file z_006.den   
 #                   Number of data points =  725
 #                   Volume integral = 6.00000E+00
 #
 # Furness-McCarthy exchange potential
 #
 # LDA absorption potential (only electron-hole excitations):
 #                           Delta = 1.26000E+00 eV
 #                            Aabs = 2.00000E+00
 #
 # Correlation-polarization potential (LDA):
 #                           Alpha = 1.76000E-24 cm**3
 #                            Bpol = 4.67707E+00
 #
 # Total elastic cross section = 1.17202E-16 cm**2 = 4.18537E+00 a0**2
 # 1st transport cross section = 1.34725E-17 cm**2 = 4.81113E-01 a0**2
 # 2nd transport cross section = 2.46383E-17 cm**2 = 8.79851E-01 a0**2
 #
 #    Absorption cross section = 1.21657E-16 cm**2 = 4.34445E+00 a0**2
 #   Grand total cross section = 2.38863E-16 cm**2 = 8.52994E+00 a0**2
 #
 #
 # Differential cross section:                       MU=(1-COS(THETA))/2
 #
 #  THETA        MU          DCS          DCS        Sherman      error
 #  (deg)                 (cm**2/sr)   (a0**2/sr)    function
 #----------------------------------------------------------------------
  0.000E+00  0.00000E+00  1.46046E-15  5.21539E+01  0.00000E+00  1.1E-06
  1.000E-04  7.61557E-13  1.46046E-15  5.21539E+01  1.02922E-10  1.1E-06
  1.250E-04  1.18994E-12  1.46046E-15  5.21539E+01  1.28653E-10  1.1E-06
  1.500E-04  1.71346E-12  1.46046E-15  5.21539E+01  1.54383E-10  1.1E-06
  1.750E-04  2.33225E-12  1.46046E-15  5.21539E+01  1.80114E-10  1.1E-06
  2.000E-04  3.04617E-12  1.46046E-15  5.21539E+01  2.05844E-10  1.1E-06
  2.250E-04  3.85530E-12  1.46046E-15  5.21539E+01  2.31575E-10  1.1E-06
  2.500E-04  4.75964E-12  1.46046E-15  5.21539E+01  2.57305E-10  1.1E-06
  2.750E-04  5.75917E-12  1.46046E-15  5.21539E+01  2.83036E-10  1.1E-06
  3.000E-04  6.85391E-12  1.46046E-15  5.21539E+01  3.08767E-10  1.1E-06
  3.250E-04  8.04379E-12  1.46046E-15  5.21539E+01  3.34497E-10  1.1E-06
  3.500E-04  9.32893E-12  1.46046E-15  5.21539E+01  3.60228E-10  1.1E-06
  3.750E-04  1.07092E-11  1.46046E-15  5.21539E+01  3.85958E-10  1.1E-06
  4.000E-04  1.21847E-11  1.46046E-15  5.21539E+01  4.11689E-10  1.1E-06
  4.250E-04  1.37554E-11  1.46046E-15  5.21539E+01  4.37419E-10  1.1E-06
  4.500E-04  1.54213E-11  1.46046E-15  5.21539E+01  4.63150E-10  1.1E-06
  4.750E-04  1.71823E-11  1.46046E-15  5.21539E+01  4.88880E-10  1.1E-06
  5.000E-04  1.90386E-11  1.46046E-15  5.21539E+01  5.14611E-10  1.1E-06
  5.250E-04  2.09900E-11  1.46046E-15  5.21539E+01  5.40342E-10  1.1E-06
  5.500E-04  2.30367E-11  1.46046E-15  5.21539E+01  5.66072E-10  1.1E-06
  5.750E-04  2.51785E-11  1.46046E-15  5.21539E+01  5.91803E-10  1.1E-06
  6.000E-04  2.74156E-11  1.46046E-15  5.21539E+01  6.17533E-10  1.1E-06
  6.250E-04  2.97478E-11  1.46046E-15  5.21539E+01  6.43264E-10  1.1E-06
  6.500E-04  3.21752E-11  1.46046E-15  5.21539E+01  6.68994E-10  1.1E-06
  6.750E-04  3.46979E-11  1.46046E-15  5.21539E+01  6.94725E-10  1.1E-06
  7.000E-04  3.73157E-11  1.46046E-15  5.21539E+01  7.20455E-10  1.1E-06
  7.250E-04  4.00286E-11  1.46046E-15  5.21539E+01  7.46186E-10  1.1E-06
  7.500E-04  4.28368E-11  1.46046E-15  5.21539E+01  7.71916E-10  1.1E-06
  7.750E-04  4.57402E-11  1.46046E-15  5.21539E+01  7.97647E-10  1.1E-06
  8.000E-04  4.87388E-11  1.46046E-15  5.21539E+01  8.23378E-10  1.1E-06
  8.250E-04  5.18325E-11  1.46046E-15  5.21539E+01  8.49108E-10  1.1E-06
  8.500E-04  5.50215E-11  1.46046E-15  5.21539E+01  8.74839E-10  1.1E-06
  8.750E-04  5.83057E-11  1.46046E-15  5.21539E+01  9.00569E-10  1.1E-06
  9.000E-04  6.16850E-11  1.46046E-15  5.21539E+01  9.26300E-10  1.1E-06
  9.250E-04  6.51595E-11  1.46046E-15  5.21539E+01  9.52030E-10  1.1E-06
  9.500E-04  6.87293E-11  1.46046E-15  5.21539E+01  9.77761E-10  1.1E-06
  9.750E-04  7.23943E-11  1.46046E-15  5.21539E+01  1.00349E-09  1.1E-06
  1.000E-03  7.61544E-11  1.46046E-15  5.21538E+01  1.02922E-09  1.1E-06
  1.250E-03  1.18991E-10  1.46046E-15  5.21538E+01  1.28653E-09  1.1E-06
  1.500E-03  1.71347E-10  1.46046E-15  5.21538E+01  1.54383E-09  1.1E-06
  1.750E-03  2.33223E-10  1.46046E-15  5.21538E+01  1.80114E-09  1.1E-06
  2.000E-03  3.04617E-10  1.46046E-15  5.21538E+01  2.05844E-09  1.1E-06
  2.250E-03  3.85531E-10  1.46046E-15  5.21538E+01  2.31575E-09  1.1E-06
  2.500E-03  4.75965E-10  1.46045E-15  5.21538E+01  2.57305E-09  1.1E-06
  2.750E-03  5.75917E-10  1.46045E-15  5.21538E+01  2.83036E-09  1.1E-06
  3.000E-03  6.85389E-10  1.46045E-15  5.21538E+01  3.08766E-09  1.1E-06
  3.250E-03  8.04380E-10  1.46045E-15  5.21537E+01  3.34497E-09  1.1E-06
  3.500E-03  9.32891E-10  1.46045E-15  5.21537E+01  3.60227E-09  1.1E-06
  3.750E-03  1.07092E-09  1.46045E-15  5.21537E+01  3.85958E-09  1.1E-06
  4.000E-03  1.21847E-09  1.46045E-15  5.21537E+01  4.11688E-09  1.1E-06
  4.250E-03  1.37554E-09  1.46045E-15  5.21537E+01  4.37419E-09  1.1E-06
  4.500E-03  1.54213E-09  1.46045E-15  5.21536E+01  4.63149E-09  1.1E-06
  4.750E-03  1.71823E-09  1.46045E-15  5.21536E+01  4.88879E-09  1.1E-06
  5.000E-03  1.90386E-09  1.46045E-15  5.21536E+01  5.14610E-09  1.1E-06
  5.250E-03  2.09900E-09  1.46045E-15  5.21535E+01  5.40340E-09  1.1E-06
  5.500E-03  2.30367E-09  1.46045E-15  5.21535E+01  5.66070E-09  1.1E-06
  5.750E-03  2.51785E-09  1.46045E-15  5.21535E+01  5.91801E-09  1.1E-06
  6.000E-03  2.74156E-09  1.46045E-15  5.21534E+01  6.17531E-09  1.1E-06
  6.250E-03  2.97478E-09  1.46044E-15  5.21534E+01  6.43261E-09  1.1E-06
  6.500E-03  3.21752E-09  1.46044E-15  5.21534E+01  6.68991E-09  1.1E-06
  6.750E-03  3.46978E-09  1.46044E-15  5.21533E+01  6.94722E-09  1.1E-06
  7.000E-03  3.73156E-09  1.46044E-15  5.21533E+01  7.20452E-09  1.1E-06
  7.250E-03  4.00286E-09  1.46044E-15  5.21533E+01  7.46182E-09  1.1E-06
  7.500E-03  4.28368E-09  1.46044E-15  5.21532E+01  7.71912E-09  1.1E-06
  7.750E-03  4.57402E-09  1.46044E-15  5.21532E+01  7.97642E-09  1.1E-06
  8.000E-03  4.87388E-09  1.46044E-15  5.21531E+01  8.23372E-09  1.1E-06
  8.250E-03  5.18326E-09  1.46043E-15  5.21531E+01  8.49102E-09  1.1E-06
  8.500E-03  5.50215E-09  1.46043E-15  5.21530E+01  8.74832E-09  1.1E-06
  8.750E-03  5.83057E-09  1.46043E-15  5.21530E+01  9.00562E-09  1.1E-06
  9.000E-03  6.16850E-09  1.46043E-15  5.21529E+01  9.26292E-09  1.1E-06
  9.250E-03  6.51596E-09  1.46043E-15  5.21529E+01  9.52022E-09  1.1E-06
  9.500E-03  6.87293E-09  1.46043E-15  5.21528E+01  9.77752E-09  1.1E-06
  9.750E-03  7.23942E-09  1.46043E-15  5.21528E+01  1.00348E-08  1.1E-06
  1.000E-02  7.61544E-09  1.46042E-15  5.21527E+01  1.02921E-08  1.1E-06
  1.250E-02  1.18991E-08  1.46041E-15  5.21521E+01  1.28651E-08  1.1E-06
  1.500E-02  1.71347E-08  1.46038E-15  5.21513E+01  1.54380E-08  1.1E-06
  1.750E-02  2.33223E-08  1.46036E-15  5.21503E+01  1.80108E-08  1.1E-06
  2.000E-02  3.04617E-08  1.46033E-15  5.21492E+01  2.05836E-08  1.1E-06
  2.250E-02  3.85531E-08  1.46029E-15  5.21480E+01  2.31563E-08  1.1E-06
  2.500E-02  4.75965E-08  1.46025E-15  5.21466E+01  2.57289E-08  1.1E-06
  2.750E-02  5.75917E-08  1.46021E-15  5.21451E+01  2.83014E-08  1.1E-06
  3.000E-02  6.85389E-08  1.46017E-15  5.21435E+01  3.08737E-08  1.1E-06
  3.250E-02  8.04380E-08  1.46011E-15  5.21417E+01  3.34460E-08  1.1E-06
  3.500E-02  9.32891E-08  1.46006E-15  5.21397E+01  3.60181E-08  1.1E-06
  3.750E-02  1.07092E-07  1.46000E-15  5.21376E+01  3.85901E-08  1.1E-06
  4.000E-02  1.21847E-07  1.45994E-15  5.21354E+01  4.11620E-08  1.1E-06
  4.250E-02  1.37554E-07  1.45987E-15  5.21330E+01  4.37337E-08  1.1E-06
  4.500E-02  1.54213E-07  1.45980E-15  5.21305E+01  4.63052E-08  1.1E-06
  4.750E-02  1.71823E-07  1.45973E-15  5.21278E+01  4.88765E-08  1.1E-06
  5.000E-02  1.90386E-07  1.45965E-15  5.21250E+01  5.14476E-08  1.1E-06
  5.250E-02  2.09900E-07  1.45957E-15  5.21220E+01  5.40186E-08  1.1E-06
  5.500E-02  2.30367E-07  1.45948E-15  5.21189E+01  5.65893E-08  1.1E-06
  5.750E-02  2.51785E-07  1.45939E-15  5.21157E+01  5.91598E-08  1.1E-06
  6.000E-02  2.74156E-07  1.45929E-15  5.21123E+01  6.17301E-08  1.1E-06
  6.250E-02  2.97478E-07  1.45919E-15  5.21088E+01  6.43001E-08  1.1E-06
  6.500E-02  3.21752E-07  1.45909E-15  5.21051E+01  6.68699E-08  1.1E-06
  6.750E-02  3.46978E-07  1.45899E-15  5.21013E+01  6.94395E-08  1.1E-06
  7.000E-02  3.73156E-07  1.45887E-15  5.20974E+01  7.20087E-08  1.1E-06
  7.250E-02  4.00286E-07  1.45876E-15  5.20933E+01  7.45777E-08  1.1E-06
  7.500E-02  4.28368E-07  1.45864E-15  5.20890E+01  7.71464E-08  1.1E-06
  7.750E-02  4.57402E-07  1.45852E-15  5.20846E+01  7.97148E-08  1.1E-06
  8.000E-02  4.87388E-07  1.45839E-15  5.20801E+01  8.22829E-08  1.1E-06
  8.250E-02  5.18325E-07  1.45826E-15  5.20755E+01  8.48507E-08  1.1E-06
  8.500E-02  5.50215E-07  1.45813E-15  5.20707E+01  8.74181E-08  1.0E-06
  8.750E-02  5.83057E-07  1.45799E-15  5.20657E+01  8.99852E-08  1.0E-06
  9.000E-02  6.16850E-07  1.45785E-15  5.20606E+01  9.25520E-08  1.0E-06
  9.250E-02  6.51596E-07  1.45770E-15  5.20554E+01  9.51184E-08  1.0E-06
  9.500E-02  6.87293E-07  1.45755E-15  5.20500E+01  9.76845E-08  1.0E-06
  9.750E-02  7.23942E-07  1.45740E-15  5.20445E+01  1.00250E-07  1.0E-06
  1.000E-01  7.61543E-07  1.45724E-15  5.20389E+01  1.02815E-07  1.0E-06
  1.250E-01  1.18991E-06  1.45544E-15  5.19748E+01  1.28446E-07  9.8E-07
  1.500E-01  1.71347E-06  1.45327E-15  5.18971E+01  1.54028E-07  9.3E-07
  1.750E-01  2.33223E-06  1.45072E-15  5.18061E+01  1.79555E-07  8.7E-07
  2.000E-01  3.04617E-06  1.44781E-15  5.17021E+01  2.05019E-07  8.0E-07
  2.250E-01  3.85531E-06  1.44455E-15  5.15857E+01  2.30413E-07  7.2E-07
  2.500E-01  4.75964E-06  1.44095E-15  5.14573E+01  2.55733E-07  6.4E-07
  2.750E-01  5.75916E-06  1.43703E-15  5.13174E+01  2.80974E-07  5.6E-07
  3.000E-01  6.85388E-06  1.43281E-15  5.11667E+01  3.06133E-07  4.7E-07
  3.250E-01  8.04378E-06  1.42830E-15  5.10057E+01  3.31208E-07  3.8E-07
  3.500E-01  9.32888E-06  1.42353E-15  5.08350E+01  3.56199E-07  2.9E-07
  3.750E-01  1.07092E-05  1.41850E-15  5.06554E+01  3.81107E-07  2.0E-07
  4.000E-01  1.21846E-05  1.41323E-15  5.04675E+01  4.05935E-07  1.1E-07
  4.250E-01  1.37553E-05  1.40776E-15  5.02720E+01  4.30685E-07  1.0E-07
  4.500E-01  1.54212E-05  1.40209E-15  5.00695E+01  4.55365E-07  1.0E-07
  4.750E-01  1.71822E-05  1.39625E-15  4.98609E+01  4.79979E-07  1.3E-07
  5.000E-01  1.90385E-05  1.39025E-15  4.96466E+01  5.04536E-07  2.0E-07
  5.250E-01  2.09899E-05  1.38411E-15  4.94275E+01  5.29046E-07  2.6E-07
  5.500E-01  2.30365E-05  1.37786E-15  4.92042E+01  5.53518E-07  3.1E-07
  5.750E-01  2.51783E-05  1.37151E-15  4.89774E+01  5.77966E-07  3.6E-07
  6.000E-01  2.74153E-05  1.36507E-15  4.87477E+01  6.02401E-07  4.0E-07
  6.250E-01  2.97475E-05  1.35858E-15  4.85156E+01  6.26837E-07  4.3E-07
  6.500E-01  3.21749E-05  1.35203E-15  4.82819E+01  6.51289E-07  4.5E-07
  6.750E-01  3.46974E-05  1.34545E-15  4.80469E+01  6.75771E-07  4.6E-07
  7.000E-01  3.73152E-05  1.33885E-15  4.78113E+01  7.00299E-07  4.7E-07
  7.250E-01  4.00281E-05  1.33225E-15  4.75755E+01  7.24887E-07  4.6E-07
  7.500E-01  4.28362E-05  1.32565E-15  4.73400E+01  7.49552E-07  4.4E-07
  7.750E-01  4.57395E-05  1.31908E-15  4.71051E+01  7.74308E-07  4.2E-07
  8.000E-01  4.87380E-05  1.31253E-15  4.68713E+01  7.99171E-07  3.9E-07
  8.250E-01  5.18317E-05  1.30602E-15  4.66388E+01  8.24155E-07  3.6E-07
  8.500E-01  5.50205E-05  1.29956E-15  4.64080E+01  8.49272E-07  3.1E-07
  8.750E-01  5.83045E-05  1.29315E-15  4.61791E+01  8.74536E-07  2.7E-07
  9.000E-01  6.16838E-05  1.28680E-15  4.59523E+01  8.99958E-07  2.1E-07
  9.250E-01  6.51582E-05  1.28051E-15  4.57278E+01  9.25547E-07  1.6E-07
  9.500E-01  6.87277E-05  1.27429E-15  4.55058E+01  9.51312E-07  1.0E-07
  9.750E-01  7.23925E-05  1.26815E-15  4.52863E+01  9.77261E-07  1.0E-07
  1.000E+00  7.61524E-05  1.26207E-15  4.50695E+01  1.00340E-06  1.0E-07
  1.100E+00  9.21439E-05  1.23854E-15  4.42289E+01  1.10988E-06  2.1E-07
  1.200E+00  1.09658E-04  1.21616E-15  4.34298E+01  1.21936E-06  3.4E-07
  1.300E+00  1.28695E-04  1.19479E-15  4.26667E+01  1.33141E-06  3.6E-07
  1.400E+00  1.49255E-04  1.17421E-15  4.19319E+01  1.44531E-06  2.8E-07
  1.500E+00  1.71338E-04  1.15421E-15  4.12176E+01  1.56027E-06  1.2E-07
  1.600E+00  1.94942E-04  1.13461E-15  4.05176E+01  1.67558E-06  1.0E-07
  1.700E+00  2.20070E-04  1.11531E-15  3.98284E+01  1.79081E-06  2.3E-07
  1.800E+00  2.46720E-04  1.09627E-15  3.91485E+01  1.90587E-06  3.1E-07
  1.900E+00  2.74892E-04  1.07752E-15  3.84788E+01  2.02103E-06  3.0E-07
  2.000E+00  3.04586E-04  1.05911E-15  3.78213E+01  2.13685E-06  2.0E-07
  2.100E+00  3.35803E-04  1.04110E-15  3.71784E+01  2.25396E-06  1.0E-07
  2.200E+00  3.68542E-04  1.02355E-15  3.65516E+01  2.37300E-06  1.2E-07
  2.300E+00  4.02802E-04  1.00647E-15  3.59419E+01  2.49437E-06  2.4E-07
  2.400E+00  4.38585E-04  9.89865E-16  3.53487E+01  2.61820E-06  2.9E-07
  2.500E+00  4.75889E-04  9.73681E-16  3.47708E+01  2.74431E-06  2.6E-07
  2.600E+00  5.14715E-04  9.57867E-16  3.42061E+01  2.87229E-06  1.4E-07
  2.700E+00  5.55063E-04  9.42365E-16  3.36525E+01  3.00163E-06  1.0E-07
  2.800E+00  5.96931E-04  9.27125E-16  3.31082E+01  3.13184E-06  1.6E-07
  2.900E+00  6.40321E-04  9.12115E-16  3.25722E+01  3.26264E-06  2.5E-07
  3.000E+00  6.85233E-04  8.97322E-16  3.20439E+01  3.39399E-06  2.7E-07
  3.100E+00  7.31665E-04  8.82751E-16  3.15236E+01  3.52612E-06  2.1E-07
  3.200E+00  7.79618E-04  8.68420E-16  3.10118E+01  3.65948E-06  1.0E-07
  3.300E+00  8.29092E-04  8.54345E-16  3.05092E+01  3.79459E-06  1.0E-07
  3.400E+00  8.80086E-04  8.40541E-16  3.00163E+01  3.93195E-06  1.9E-07
  3.500E+00  9.32601E-04  8.27011E-16  2.95331E+01  4.07189E-06  2.6E-07
  3.600E+00  9.86636E-04  8.13747E-16  2.90594E+01  4.21448E-06  2.5E-07
  3.700E+00  1.04219E-03  8.00729E-16  2.85946E+01  4.35957E-06  1.7E-07
  3.800E+00  1.09927E-03  7.87934E-16  2.81376E+01  4.50683E-06  1.0E-07
  3.900E+00  1.15786E-03  7.75337E-16  2.76878E+01  4.65584E-06  1.0E-07
  4.000E+00  1.21797E-03  7.62918E-16  2.72443E+01  4.80625E-06  2.1E-07
  4.100E+00  1.27961E-03  7.50664E-16  2.68067E+01  4.95788E-06  2.6E-07
  4.200E+00  1.34276E-03  7.38571E-16  2.63749E+01  5.11076E-06  2.3E-07
  4.300E+00  1.40743E-03  7.26644E-16  2.59489E+01  5.26514E-06  1.3E-07
  4.400E+00  1.47362E-03  7.14891E-16  2.55292E+01  5.42146E-06  1.0E-07
  4.500E+00  1.54133E-03  7.03319E-16  2.51160E+01  5.58018E-06  1.4E-07
  4.600E+00  1.61056E-03  6.91935E-16  2.47094E+01  5.74173E-06  2.3E-07
  4.700E+00  1.68131E-03  6.80738E-16  2.43096E+01  5.90634E-06  2.5E-07
  4.800E+00  1.75357E-03  6.69724E-16  2.39163E+01  6.07406E-06  2.0E-07
  4.900E+00  1.82735E-03  6.58881E-16  2.35291E+01  6.24470E-06  1.0E-07
  5.000E+00  1.90265E-03  6.48197E-16  2.31475E+01  6.41797E-06  1.0E-07
  5.100E+00  1.97947E-03  6.37661E-16  2.27713E+01  6.59350E-06  1.7E-07
  5.200E+00  2.05780E-03  6.27262E-16  2.23999E+01  6.77101E-06  2.4E-07
  5.300E+00  2.13765E-03  6.16998E-16  2.20334E+01  6.95039E-06  2.4E-07
  5.400E+00  2.21902E-03  6.06866E-16  2.16716E+01  7.13174E-06  1.6E-07
  5.500E+00  2.30190E-03  5.96871E-16  2.13147E+01  7.31533E-06  1.0E-07
  5.600E+00  2.38630E-03  5.87018E-16  2.09628E+01  7.50159E-06  1.0E-07
  5.700E+00  2.47222E-03  5.77311E-16  2.06161E+01  7.69095E-06  2.0E-07
  5.800E+00  2.55965E-03  5.67752E-16  2.02748E+01  7.88376E-06  2.5E-07
  5.900E+00  2.64859E-03  5.58341E-16  1.99387E+01  8.08021E-06  2.2E-07
  6.000E+00  2.73905E-03  5.49074E-16  1.96078E+01  8.28027E-06  1.2E-07
  6.100E+00  2.83103E-03  5.39945E-16  1.92818E+01  8.48375E-06  1.0E-07
  6.200E+00  2.92452E-03  5.30947E-16  1.89604E+01  8.69033E-06  1.4E-07
  6.300E+00  3.01952E-03  5.22073E-16  1.86436E+01  8.89969E-06  2.3E-07
  6.400E+00  3.11604E-03  5.13319E-16  1.83309E+01  9.11159E-06  2.5E-07
  6.500E+00  3.21407E-03  5.04683E-16  1.80226E+01  9.32598E-06  1.9E-07
  6.600E+00  3.31362E-03  4.96167E-16  1.77184E+01  9.54299E-06  1.0E-07
  6.700E+00  3.41468E-03  4.87772E-16  1.74187E+01  9.76293E-06  1.0E-07
  6.800E+00  3.51725E-03  4.79503E-16  1.71233E+01  9.98622E-06  1.7E-07
  6.900E+00  3.62133E-03  4.71360E-16  1.68326E+01  1.02133E-05  2.4E-07
  7.000E+00  3.72692E-03  4.63345E-16  1.65464E+01  1.04443E-05  2.4E-07
  7.100E+00  3.83403E-03  4.55458E-16  1.62647E+01  1.06795E-05  1.6E-07
  7.200E+00  3.94265E-03  4.47693E-16  1.59874E+01  1.09188E-05  1.0E-07
  7.300E+00  4.05278E-03  4.40049E-16  1.57144E+01  1.11620E-05  1.0E-07
  7.400E+00  4.16442E-03  4.32518E-16  1.54455E+01  1.14086E-05  2.0E-07
  7.500E+00  4.27757E-03  4.25099E-16  1.51806E+01  1.16585E-05  2.5E-07
  7.600E+00  4.39223E-03  4.17788E-16  1.49195E+01  1.19113E-05  2.2E-07
  7.700E+00  4.50840E-03  4.10585E-16  1.46622E+01  1.21672E-05  1.3E-07
  7.800E+00  4.62608E-03  4.03490E-16  1.44089E+01  1.24262E-05  1.0E-07
  7.900E+00  4.74527E-03  3.96505E-16  1.41595E+01  1.26887E-05  1.4E-07
  8.000E+00  4.86597E-03  3.89632E-16  1.39140E+01  1.29551E-05  2.3E-07
  8.100E+00  4.98817E-03  3.82871E-16  1.36726E+01  1.32257E-05  2.5E-07
  8.200E+00  5.11188E-03  3.76224E-16  1.34352E+01  1.35009E-05  2.0E-07
  8.300E+00  5.23711E-03  3.69686E-16  1.32017E+01  1.37805E-05  1.0E-07
  8.400E+00  5.36383E-03  3.63257E-16  1.29722E+01  1.40646E-05  1.0E-07
  8.500E+00  5.49207E-03  3.56933E-16  1.27463E+01  1.43528E-05  1.8E-07
  8.600E+00  5.62181E-03  3.50711E-16  1.25241E+01  1.46448E-05  2.5E-07
  8.700E+00  5.75306E-03  3.44587E-16  1.23054E+01  1.49402E-05  2.5E-07
  8.800E+00  5.88581E-03  3.38560E-16  1.20902E+01  1.52389E-05  1.7E-07
  8.900E+00  6.02007E-03  3.32630E-16  1.18784E+01  1.55409E-05  1.0E-07
  9.000E+00  6.15583E-03  3.26797E-16  1.16701E+01  1.58464E-05  1.0E-07
  9.100E+00  6.29310E-03  3.21062E-16  1.14653E+01  1.61558E-05  2.1E-07
  9.200E+00  6.43187E-03  3.15425E-16  1.12640E+01  1.64694E-05  2.6E-07
  9.300E+00  6.57214E-03  3.09887E-16  1.10663E+01  1.67876E-05  2.3E-07
  9.400E+00  6.71392E-03  3.04446E-16  1.08720E+01  1.71105E-05  1.3E-07
  9.500E+00  6.85720E-03  2.99102E-16  1.06811E+01  1.74382E-05  1.0E-07
  9.600E+00  7.00198E-03  2.93850E-16  1.04936E+01  1.77704E-05  1.5E-07
  9.700E+00  7.14827E-03  2.88689E-16  1.03093E+01  1.81067E-05  2.4E-07
  9.800E+00  7.29605E-03  2.83616E-16  1.01281E+01  1.84469E-05  2.7E-07
  9.900E+00  7.44534E-03  2.78630E-16  9.95005E+00  1.87905E-05  2.1E-07
  1.000E+01  7.59612E-03  2.73728E-16  9.77500E+00  1.91374E-05  1.0E-07
  1.025E+01  7.97965E-03  2.61842E-16  9.35057E+00  2.00202E-05  2.3E-07
  1.050E+01  8.37255E-03  2.50485E-16  8.94497E+00  2.09290E-05  1.8E-07
  1.075E+01  8.77480E-03  2.39642E-16  8.55777E+00  2.18669E-05  1.7E-07
  1.100E+01  9.18641E-03  2.29284E-16  8.18788E+00  2.28308E-05  2.5E-07
  1.125E+01  9.60736E-03  2.19382E-16  7.83427E+00  2.38154E-05  1.0E-07
  1.150E+01  1.00376E-02  2.09925E-16  7.49654E+00  2.48213E-05  2.8E-07
  1.175E+01  1.04773E-02  2.00905E-16  7.17445E+00  2.58533E-05  1.0E-07
  1.200E+01  1.09262E-02  1.92306E-16  6.86736E+00  2.69125E-05  2.8E-07
  1.225E+01  1.13844E-02  1.84099E-16  6.57429E+00  2.79936E-05  1.3E-07
  1.250E+01  1.18520E-02  1.76264E-16  6.29451E+00  2.90921E-05  2.4E-07
  1.275E+01  1.23288E-02  1.68793E-16  6.02770E+00  3.02102E-05  2.2E-07
  1.300E+01  1.28150E-02  1.61675E-16  5.77351E+00  3.13528E-05  1.6E-07
  1.325E+01  1.33104E-02  1.54891E-16  5.53126E+00  3.25186E-05  2.8E-07
  1.350E+01  1.38150E-02  1.48419E-16  5.30013E+00  3.37005E-05  1.0E-07
  1.375E+01  1.43290E-02  1.42244E-16  5.07963E+00  3.48955E-05  3.1E-07
