 #
 # Subroutine ELSEPA. Elastic scattering of electrons and positrons
 #                    by neutral atoms and positive ions
 #
 # Projectile: electron
 # Kinetic energy = 1.20000E+04 eV = 4.40992E+02 a.u.
 #
 # Element:  C,  Z =   6,  atomic weight = 1.20107E+01 g/mol
 #
 # Nuclear model: Fermi distribution
 #                Average radius = 2.45042E-13 cm
 #                Skin thickness = 5.46000E-14 cm
 #
 # Number of electrons =  6
 #
 # Electron density: Read from file z_006.den   
 #                   Number of data points =  725
 #                   Volume integral = 6.00000E+00
 #
 # Furness-McCarthy exchange potential
 #
 # LDA absorption potential (only electron-hole excitations):
 #                           Delta = 1.26000E+00 eV
 #                            Aabs = 2.00000E+00
 #
 # Total elastic cross section = 5.23708E-18 cm**2 = 1.87019E-01 a0**2
 # 1st transport cross section = 4.57863E-20 cm**2 = 1.63506E-03 a0**2
 # 2nd transport cross section = 1.13369E-19 cm**2 = 4.04846E-03 a0**2
 #
 #    Absorption cross section = 5.04370E-18 cm**2 = 1.80114E-01 a0**2
 #   Grand total cross section = 1.02819E-17 cm**2 = 3.67172E-01 a0**2
 #
 #
 # Differential cross section:                       MU=(1-COS(THETA))/2
 #
 #  THETA        MU          DCS          DCS        Sherman      error
 #  (deg)                 (cm**2/sr)   (a0**2/sr)    function
 #----------------------------------------------------------------------
  0.000E+00  0.00000E+00  6.44748E-16  2.30244E+01  0.00000E+00  1.0E-07
  1.000E-04  7.61557E-13  6.44748E-16  2.30244E+01  2.38902E-11  1.0E-07
  1.250E-04  1.18994E-12  6.44748E-16  2.30244E+01  2.98627E-11  1.0E-07
  1.500E-04  1.71346E-12  6.44748E-16  2.30244E+01  3.58353E-11  1.0E-07
  1.750E-04  2.33225E-12  6.44748E-16  2.30244E+01  4.18078E-11  1.0E-07
  2.000E-04  3.04617E-12  6.44748E-16  2.30244E+01  4.77804E-11  1.0E-07
  2.250E-04  3.85530E-12  6.44748E-16  2.30244E+01  5.37529E-11  1.0E-07
  2.500E-04  4.75964E-12  6.44748E-16  2.30244E+01  5.97254E-11  1.0E-07
  2.750E-04  5.75917E-12  6.44748E-16  2.30244E+01  6.56980E-11  1.0E-07
  3.000E-04  6.85391E-12  6.44748E-16  2.30244E+01  7.16705E-11  1.0E-07
  3.250E-04  8.04379E-12  6.44748E-16  2.30244E+01  7.76431E-11  1.0E-07
  3.500E-04  9.32893E-12  6.44748E-16  2.30244E+01  8.36156E-11  1.0E-07
  3.750E-04  1.07092E-11  6.44748E-16  2.30244E+01  8.95882E-11  1.0E-07
  4.000E-04  1.21847E-11  6.44748E-16  2.30244E+01  9.55607E-11  1.0E-07
  4.250E-04  1.37554E-11  6.44748E-16  2.30244E+01  1.01533E-10  1.0E-07
  4.500E-04  1.54213E-11  6.44748E-16  2.30244E+01  1.07506E-10  1.0E-07
  4.750E-04  1.71823E-11  6.44748E-16  2.30244E+01  1.13478E-10  1.0E-07
  5.000E-04  1.90386E-11  6.44748E-16  2.30244E+01  1.19451E-10  1.0E-07
  5.250E-04  2.09900E-11  6.44748E-16  2.30244E+01  1.25423E-10  1.0E-07
  5.500E-04  2.30367E-11  6.44748E-16  2.30244E+01  1.31396E-10  1.0E-07
  5.750E-04  2.51785E-11  6.44748E-16  2.30244E+01  1.37369E-10  1.0E-07
  6.000E-04  2.74156E-11  6.44748E-16  2.30244E+01  1.43341E-10  1.0E-07
  6.250E-04  2.97478E-11  6.44748E-16  2.30244E+01  1.49314E-10  1.0E-07
  6.500E-04  3.21752E-11  6.44748E-16  2.30244E+01  1.55286E-10  1.0E-07
  6.750E-04  3.46979E-11  6.44748E-16  2.30244E+01  1.61259E-10  1.0E-07
  7.000E-04  3.73157E-11  6.44748E-16  2.30244E+01  1.67231E-10  1.0E-07
  7.250E-04  4.00286E-11  6.44748E-16  2.30244E+01  1.73204E-10  1.0E-07
  7.500E-04  4.28368E-11  6.44748E-16  2.30244E+01  1.79176E-10  1.0E-07
  7.750E-04  4.57402E-11  6.44748E-16  2.30244E+01  1.85149E-10  1.0E-07
  8.000E-04  4.87388E-11  6.44748E-16  2.30244E+01  1.91121E-10  1.0E-07
  8.250E-04  5.18325E-11  6.44748E-16  2.30244E+01  1.97094E-10  1.0E-07
  8.500E-04  5.50215E-11  6.44748E-16  2.30244E+01  2.03067E-10  1.0E-07
  8.750E-04  5.83057E-11  6.44748E-16  2.30244E+01  2.09039E-10  1.0E-07
  9.000E-04  6.16850E-11  6.44748E-16  2.30244E+01  2.15012E-10  1.0E-07
  9.250E-04  6.51595E-11  6.44748E-16  2.30244E+01  2.20984E-10  1.0E-07
  9.500E-04  6.87293E-11  6.44748E-16  2.30244E+01  2.26957E-10  1.0E-07
  9.750E-04  7.23943E-11  6.44748E-16  2.30244E+01  2.32929E-10  1.0E-07
  1.000E-03  7.61544E-11  6.44748E-16  2.30244E+01  2.38902E-10  1.0E-07
  1.250E-03  1.18991E-10  6.44748E-16  2.30244E+01  2.98627E-10  1.0E-07
  1.500E-03  1.71347E-10  6.44747E-16  2.30243E+01  3.58353E-10  1.0E-07
  1.750E-03  2.33223E-10  6.44747E-16  2.30243E+01  4.18078E-10  1.0E-07
  2.000E-03  3.04617E-10  6.44747E-16  2.30243E+01  4.77804E-10  1.0E-07
  2.250E-03  3.85531E-10  6.44747E-16  2.30243E+01  5.37529E-10  1.0E-07
  2.500E-03  4.75965E-10  6.44747E-16  2.30243E+01  5.97255E-10  1.0E-07
  2.750E-03  5.75917E-10  6.44747E-16  2.30243E+01  6.56981E-10  1.0E-07
  3.000E-03  6.85389E-10  6.44747E-16  2.30243E+01  7.16706E-10  1.0E-07
  3.250E-03  8.04380E-10  6.44746E-16  2.30243E+01  7.76432E-10  1.0E-07
  3.500E-03  9.32891E-10  6.44746E-16  2.30243E+01  8.36158E-10  1.0E-07
  3.750E-03  1.07092E-09  6.44746E-16  2.30243E+01  8.95884E-10  1.0E-07
  4.000E-03  1.21847E-09  6.44746E-16  2.30243E+01  9.55610E-10  1.0E-07
  4.250E-03  1.37554E-09  6.44745E-16  2.30243E+01  1.01534E-09  1.0E-07
  4.500E-03  1.54213E-09  6.44745E-16  2.30243E+01  1.07506E-09  1.0E-07
  4.750E-03  1.71823E-09  6.44745E-16  2.30242E+01  1.13479E-09  1.0E-07
  5.000E-03  1.90386E-09  6.44744E-16  2.30242E+01  1.19451E-09  1.0E-07
  5.250E-03  2.09900E-09  6.44744E-16  2.30242E+01  1.25424E-09  1.0E-07
  5.500E-03  2.30367E-09  6.44744E-16  2.30242E+01  1.31397E-09  1.0E-07
  5.750E-03  2.51785E-09  6.44743E-16  2.30242E+01  1.37369E-09  1.0E-07
  6.000E-03  2.74156E-09  6.44743E-16  2.30242E+01  1.43342E-09  1.0E-07
  6.250E-03  2.97478E-09  6.44742E-16  2.30242E+01  1.49315E-09  1.0E-07
  6.500E-03  3.21752E-09  6.44742E-16  2.30242E+01  1.55287E-09  1.0E-07
  6.750E-03  3.46978E-09  6.44741E-16  2.30241E+01  1.61260E-09  1.0E-07
  7.000E-03  3.73156E-09  6.44741E-16  2.30241E+01  1.67233E-09  1.0E-07
  7.250E-03  4.00286E-09  6.44741E-16  2.30241E+01  1.73205E-09  1.0E-07
  7.500E-03  4.28368E-09  6.44740E-16  2.30241E+01  1.79178E-09  1.0E-07
  7.750E-03  4.57402E-09  6.44739E-16  2.30241E+01  1.85151E-09  1.0E-07
  8.000E-03  4.87388E-09  6.44739E-16  2.30240E+01  1.91124E-09  1.0E-07
  8.250E-03  5.18326E-09  6.44738E-16  2.30240E+01  1.97096E-09  1.0E-07
  8.500E-03  5.50215E-09  6.44738E-16  2.30240E+01  2.03069E-09  1.0E-07
  8.750E-03  5.83057E-09  6.44737E-16  2.30240E+01  2.09042E-09  1.0E-07
  9.000E-03  6.16850E-09  6.44737E-16  2.30240E+01  2.15015E-09  1.0E-07
  9.250E-03  6.51596E-09  6.44736E-16  2.30239E+01  2.20987E-09  1.0E-07
  9.500E-03  6.87293E-09  6.44735E-16  2.30239E+01  2.26960E-09  1.0E-07
  9.750E-03  7.23942E-09  6.44735E-16  2.30239E+01  2.32933E-09  1.0E-07
  1.000E-02  7.61544E-09  6.44734E-16  2.30239E+01  2.38906E-09  1.0E-07
  1.250E-02  1.18991E-08  6.44726E-16  2.30236E+01  2.98635E-09  1.0E-07
  1.500E-02  1.71347E-08  6.44717E-16  2.30233E+01  3.58366E-09  1.0E-07
  1.750E-02  2.33223E-08  6.44706E-16  2.30229E+01  4.18100E-09  1.0E-07
  2.000E-02  3.04617E-08  6.44693E-16  2.30224E+01  4.77836E-09  1.0E-07
  2.250E-02  3.85531E-08  6.44678E-16  2.30219E+01  5.37576E-09  1.0E-07
  2.500E-02  4.75965E-08  6.44662E-16  2.30213E+01  5.97319E-09  1.0E-07
  2.750E-02  5.75917E-08  6.44644E-16  2.30206E+01  6.57065E-09  1.0E-07
  3.000E-02  6.85389E-08  6.44624E-16  2.30199E+01  7.16816E-09  1.0E-07
  3.250E-02  8.04380E-08  6.44602E-16  2.30192E+01  7.76572E-09  1.0E-07
  3.500E-02  9.32891E-08  6.44579E-16  2.30183E+01  8.36332E-09  1.0E-07
  3.750E-02  1.07092E-07  6.44554E-16  2.30174E+01  8.96098E-09  1.0E-07
  4.000E-02  1.21847E-07  6.44527E-16  2.30165E+01  9.55870E-09  1.0E-07
  4.250E-02  1.37554E-07  6.44499E-16  2.30155E+01  1.01565E-08  1.0E-07
  4.500E-02  1.54213E-07  6.44469E-16  2.30144E+01  1.07543E-08  1.0E-07
  4.750E-02  1.71823E-07  6.44437E-16  2.30133E+01  1.13522E-08  1.0E-07
  5.000E-02  1.90386E-07  6.44403E-16  2.30121E+01  1.19502E-08  1.0E-07
  5.250E-02  2.09900E-07  6.44368E-16  2.30108E+01  1.25483E-08  1.0E-07
  5.500E-02  2.30367E-07  6.44331E-16  2.30095E+01  1.31464E-08  1.0E-07
  5.750E-02  2.51785E-07  6.44292E-16  2.30081E+01  1.37447E-08  1.0E-07
  6.000E-02  2.74156E-07  6.44252E-16  2.30066E+01  1.43430E-08  1.0E-07
  6.250E-02  2.97478E-07  6.44209E-16  2.30051E+01  1.49414E-08  1.0E-07
  6.500E-02  3.21752E-07  6.44166E-16  2.30036E+01  1.55399E-08  1.0E-07
  6.750E-02  3.46978E-07  6.44120E-16  2.30019E+01  1.61385E-08  1.0E-07
  7.000E-02  3.73156E-07  6.44073E-16  2.30003E+01  1.67372E-08  1.0E-07
  7.250E-02  4.00286E-07  6.44024E-16  2.29985E+01  1.73360E-08  1.0E-07
  7.500E-02  4.28368E-07  6.43973E-16  2.29967E+01  1.79349E-08  1.0E-07
  7.750E-02  4.57402E-07  6.43920E-16  2.29948E+01  1.85340E-08  1.0E-07
  8.000E-02  4.87388E-07  6.43866E-16  2.29929E+01  1.91332E-08  1.0E-07
  8.250E-02  5.18325E-07  6.43810E-16  2.29909E+01  1.97324E-08  1.0E-07
  8.500E-02  5.50215E-07  6.43753E-16  2.29888E+01  2.03319E-08  1.0E-07
  8.750E-02  5.83057E-07  6.43693E-16  2.29867E+01  2.09314E-08  1.0E-07
  9.000E-02  6.16850E-07  6.43632E-16  2.29845E+01  2.15311E-08  1.0E-07
  9.250E-02  6.51596E-07  6.43570E-16  2.29823E+01  2.21309E-08  1.0E-07
  9.500E-02  6.87293E-07  6.43505E-16  2.29800E+01  2.27308E-08  1.0E-07
  9.750E-02  7.23942E-07  6.43439E-16  2.29776E+01  2.33309E-08  1.0E-07
  1.000E-01  7.61543E-07  6.43371E-16  2.29752E+01  2.39312E-08  1.0E-07
  1.250E-01  1.18991E-06  6.42598E-16  2.29476E+01  2.99428E-08  1.0E-07
  1.500E-01  1.71347E-06  6.41656E-16  2.29140E+01  3.59736E-08  1.0E-07
  1.750E-01  2.33223E-06  6.40545E-16  2.28743E+01  4.20274E-08  1.0E-07
  2.000E-01  3.04617E-06  6.39266E-16  2.28286E+01  4.81079E-08  1.0E-07
  2.250E-01  3.85531E-06  6.37821E-16  2.27770E+01  5.42188E-08  1.0E-07
  2.500E-01  4.75964E-06  6.36212E-16  2.27196E+01  6.03641E-08  1.0E-07
  2.750E-01  5.75916E-06  6.34441E-16  2.26563E+01  6.65472E-08  1.0E-07
  3.000E-01  6.85388E-06  6.32508E-16  2.25873E+01  7.27719E-08  1.0E-07
  3.250E-01  8.04378E-06  6.30418E-16  2.25126E+01  7.90418E-08  1.0E-07
  3.500E-01  9.32888E-06  6.28171E-16  2.24324E+01  8.53605E-08  1.0E-07
  3.750E-01  1.07092E-05  6.25771E-16  2.23467E+01  9.17316E-08  1.0E-07
  4.000E-01  1.21846E-05  6.23219E-16  2.22556E+01  9.81585E-08  1.0E-07
  4.250E-01  1.37553E-05  6.20520E-16  2.21592E+01  1.04645E-07  1.0E-07
  4.500E-01  1.54212E-05  6.17675E-16  2.20576E+01  1.11194E-07  1.0E-07
  4.750E-01  1.71822E-05  6.14689E-16  2.19509E+01  1.17809E-07  1.0E-07
  5.000E-01  1.90385E-05  6.11563E-16  2.18393E+01  1.24494E-07  1.0E-07
  5.250E-01  2.09899E-05  6.08302E-16  2.17229E+01  1.31251E-07  1.0E-07
  5.500E-01  2.30365E-05  6.04908E-16  2.16017E+01  1.38084E-07  1.0E-07
  5.750E-01  2.51783E-05  6.01386E-16  2.14759E+01  1.44997E-07  1.0E-07
  6.000E-01  2.74153E-05  5.97739E-16  2.13456E+01  1.51992E-07  1.0E-07
  6.250E-01  2.97475E-05  5.93970E-16  2.12111E+01  1.59072E-07  1.0E-07
  6.500E-01  3.21749E-05  5.90084E-16  2.10723E+01  1.66241E-07  1.0E-07
  6.750E-01  3.46974E-05  5.86084E-16  2.09295E+01  1.73501E-07  1.0E-07
  7.000E-01  3.73152E-05  5.81975E-16  2.07827E+01  1.80855E-07  1.0E-07
  7.250E-01  4.00281E-05  5.77760E-16  2.06322E+01  1.88307E-07  1.0E-07
  7.500E-01  4.28362E-05  5.73443E-16  2.04780E+01  1.95859E-07  1.0E-07
  7.750E-01  4.57395E-05  5.69028E-16  2.03204E+01  2.03513E-07  1.0E-07
  8.000E-01  4.87380E-05  5.64520E-16  2.01594E+01  2.11273E-07  1.0E-07
  8.250E-01  5.18317E-05  5.59922E-16  1.99952E+01  2.19141E-07  1.0E-07
  8.500E-01  5.50205E-05  5.55239E-16  1.98279E+01  2.27119E-07  1.0E-07
  8.750E-01  5.83045E-05  5.50475E-16  1.96578E+01  2.35211E-07  1.0E-07
  9.000E-01  6.16838E-05  5.45634E-16  1.94849E+01  2.43419E-07  1.0E-07
  9.250E-01  6.51582E-05  5.40720E-16  1.93095E+01  2.51744E-07  1.0E-07
  9.500E-01  6.87277E-05  5.35738E-16  1.91315E+01  2.60190E-07  1.0E-07
  9.750E-01  7.23925E-05  5.30691E-16  1.89513E+01  2.68759E-07  1.0E-07
  1.000E+00  7.61524E-05  5.25583E-16  1.87689E+01  2.77453E-07  1.0E-07
  1.100E+00  9.21439E-05  5.04632E-16  1.80207E+01  3.13520E-07  1.0E-07
  1.200E+00  1.09658E-04  4.83034E-16  1.72495E+01  3.51746E-07  1.0E-07
  1.300E+00  1.28695E-04  4.61031E-16  1.64637E+01  3.92238E-07  1.0E-07
  1.400E+00  1.49255E-04  4.38846E-16  1.56715E+01  4.35081E-07  1.0E-07
  1.500E+00  1.71338E-04  4.16681E-16  1.48799E+01  4.80335E-07  1.0E-07
  1.600E+00  1.94942E-04  3.94716E-16  1.40956E+01  5.28038E-07  1.0E-07
  1.700E+00  2.20070E-04  3.73107E-16  1.33239E+01  5.78198E-07  1.0E-07
  1.800E+00  2.46720E-04  3.51988E-16  1.25697E+01  6.30803E-07  1.0E-07
  1.900E+00  2.74892E-04  3.31468E-16  1.18369E+01  6.85814E-07  1.0E-07
  2.000E+00  3.04586E-04  3.11635E-16  1.11287E+01  7.43173E-07  1.0E-07
  2.100E+00  3.35803E-04  2.92558E-16  1.04474E+01  8.02806E-07  1.0E-07
  2.200E+00  3.68542E-04  2.74286E-16  9.79495E+00  8.64624E-07  1.0E-07
  2.300E+00  4.02802E-04  2.56855E-16  9.17245E+00  9.28523E-07  1.0E-07
  2.400E+00  4.38585E-04  2.40282E-16  8.58062E+00  9.94388E-07  1.0E-07
  2.500E+00  4.75889E-04  2.24575E-16  8.01973E+00  1.06209E-06  1.0E-07
  2.600E+00  5.14715E-04  2.09731E-16  7.48965E+00  1.13149E-06  1.0E-07
  2.700E+00  5.55063E-04  1.95739E-16  6.98995E+00  1.20243E-06  1.0E-07
  2.800E+00  5.96931E-04  1.82578E-16  6.51997E+00  1.27473E-06  1.0E-07
  2.900E+00  6.40321E-04  1.70224E-16  6.07882E+00  1.34820E-06  1.0E-07
  3.000E+00  6.85233E-04  1.58650E-16  5.66549E+00  1.42260E-06  1.0E-07
  3.100E+00  7.31665E-04  1.47823E-16  5.27884E+00  1.49770E-06  1.0E-07
  3.200E+00  7.79618E-04  1.37708E-16  4.91766E+00  1.57324E-06  1.0E-07
  3.300E+00  8.29092E-04  1.28272E-16  4.58069E+00  1.64892E-06  1.0E-07
  3.400E+00  8.80086E-04  1.19478E-16  4.26664E+00  1.72442E-06  1.0E-07
  3.500E+00  9.32601E-04  1.11290E-16  3.97425E+00  1.79942E-06  1.0E-07
  3.600E+00  9.86636E-04  1.03673E-16  3.70223E+00  1.87353E-06  1.0E-07
  3.700E+00  1.04219E-03  9.65918E-17  3.44936E+00  1.94638E-06  1.0E-07
  3.800E+00  1.09927E-03  9.00127E-17  3.21441E+00  2.01755E-06  1.0E-07
  3.900E+00  1.15786E-03  8.39032E-17  2.99624E+00  2.08659E-06  1.0E-07
  4.000E+00  1.21797E-03  7.82321E-17  2.79372E+00  2.15304E-06  1.0E-07
  4.100E+00  1.27961E-03  7.29696E-17  2.60579E+00  2.21645E-06  1.0E-07
  4.200E+00  1.34276E-03  6.80876E-17  2.43145E+00  2.27634E-06  1.0E-07
  4.300E+00  1.40743E-03  6.35593E-17  2.26975E+00  2.33226E-06  1.0E-07
  4.400E+00  1.47362E-03  5.93596E-17  2.11977E+00  2.38377E-06  1.0E-07
  4.500E+00  1.54133E-03  5.54646E-17  1.98068E+00  2.43046E-06  1.0E-07
  4.600E+00  1.61056E-03  5.18522E-17  1.85168E+00  2.47199E-06  1.0E-07
  4.700E+00  1.68131E-03  4.85017E-17  1.73203E+00  2.50802E-06  1.0E-07
  4.800E+00  1.75357E-03  4.53935E-17  1.62103E+00  2.53829E-06  1.0E-07
  4.900E+00  1.82735E-03  4.25097E-17  1.51805E+00  2.56259E-06  1.0E-07
  5.000E+00  1.90265E-03  3.98332E-17  1.42247E+00  2.58072E-06  1.0E-07
  5.100E+00  1.97947E-03  3.73486E-17  1.33374E+00  2.59255E-06  1.0E-07
  5.200E+00  2.05780E-03  3.50413E-17  1.25135E+00  2.59794E-06  1.0E-07
  5.300E+00  2.13765E-03  3.28978E-17  1.17480E+00  2.59679E-06  1.0E-07
  5.400E+00  2.21902E-03  3.09056E-17  1.10366E+00  2.58900E-06  1.0E-07
  5.500E+00  2.30190E-03  2.90533E-17  1.03751E+00  2.57444E-06  1.0E-07
  5.600E+00  2.38630E-03  2.73303E-17  9.75982E-01  2.55300E-06  1.0E-07
  5.700E+00  2.47222E-03  2.57267E-17  9.18716E-01  2.52450E-06  1.0E-07
  5.800E+00  2.55965E-03  2.42334E-17  8.65391E-01  2.48872E-06  1.0E-07
  5.900E+00  2.64859E-03  2.28422E-17  8.15711E-01  2.44539E-06  1.0E-07
  6.000E+00  2.73905E-03  2.15454E-17  7.69400E-01  2.39415E-06  1.0E-07
  6.100E+00  2.83103E-03  2.03359E-17  7.26207E-01  2.33457E-06  1.0E-07
  6.200E+00  2.92452E-03  1.92072E-17  6.85900E-01  2.26615E-06  1.0E-07
  6.300E+00  3.01952E-03  1.81532E-17  6.48264E-01  2.18830E-06  1.0E-07
  6.400E+00  3.11604E-03  1.71686E-17  6.13101E-01  2.10038E-06  1.0E-07
  6.500E+00  3.21407E-03  1.62482E-17  5.80232E-01  2.00171E-06  1.0E-07
  6.600E+00  3.31362E-03  1.53872E-17  5.49488E-01  1.89161E-06  1.0E-07
  6.700E+00  3.41468E-03  1.45815E-17  5.20716E-01  1.76939E-06  1.0E-07
  6.800E+00  3.51725E-03  1.38270E-17  4.93773E-01  1.63444E-06  1.0E-07
  6.900E+00  3.62133E-03  1.31201E-17  4.68528E-01  1.48619E-06  1.0E-07
  7.000E+00  3.72692E-03  1.24574E-17  4.44861E-01  0.00000E+00  1.0E-07
  7.100E+00  3.83403E-03  1.18357E-17  4.22659E-01  0.00000E+00  1.0E-07
  7.200E+00  3.94265E-03  1.12521E-17  4.01819E-01  0.00000E+00  1.0E-07
  7.300E+00  4.05278E-03  1.07040E-17  3.82247E-01  0.00000E+00  1.0E-07
  7.400E+00  4.16442E-03  1.01889E-17  3.63853E-01  0.00000E+00  1.0E-07
  7.500E+00  4.27757E-03  9.70457E-18  3.46557E-01  0.00000E+00  1.0E-07
  7.600E+00  4.39223E-03  9.24882E-18  3.30281E-01  0.00000E+00  1.0E-07
  7.700E+00  4.50840E-03  8.81973E-18  3.14958E-01  0.00000E+00  1.0E-07
  7.800E+00  4.62608E-03  8.41547E-18  3.00522E-01  0.00000E+00  1.0E-07
  7.900E+00  4.74527E-03  8.03438E-18  2.86913E-01  0.00000E+00  1.0E-07
  8.000E+00  4.86597E-03  7.67490E-18  2.74076E-01  0.00000E+00  1.0E-07
  8.100E+00  4.98817E-03  7.33560E-18  2.61959E-01  0.00000E+00  1.0E-07
  8.200E+00  5.11188E-03  7.01515E-18  2.50515E-01 -1.69374E-06  1.0E-07
  8.300E+00  5.23711E-03  6.71231E-18  2.39701E-01 -2.02331E-06  1.0E-07
  8.400E+00  5.36383E-03  6.42594E-18  2.29474E-01 -2.36266E-06  1.0E-07
  8.500E+00  5.49207E-03  6.15498E-18  2.19798E-01 -2.71159E-06  1.0E-07
  8.600E+00  5.62181E-03  5.89846E-18  2.10638E-01 -3.07012E-06  1.0E-07
  8.700E+00  5.75306E-03  5.65547E-18  2.01961E-01 -3.43842E-06  1.0E-07
  8.800E+00  5.88581E-03  5.42516E-18  1.93736E-01 -3.81686E-06  1.0E-07
  8.900E+00  6.02007E-03  5.20675E-18  1.85936E-01 -4.20595E-06  1.0E-07
  9.000E+00  6.15583E-03  4.99951E-18  1.78536E-01 -4.60637E-06  1.0E-07
  9.100E+00  6.29310E-03  4.80276E-18  1.71510E-01 -5.01888E-06  1.0E-07
  9.200E+00  6.43187E-03  4.61588E-18  1.64836E-01 -5.44432E-06  1.0E-07
  9.300E+00  6.57214E-03  4.43828E-18  1.58494E-01 -5.88358E-06  1.0E-07
  9.400E+00  6.71392E-03  4.26941E-18  1.52464E-01 -6.33750E-06  1.0E-07
  9.500E+00  6.85720E-03  4.10877E-18  1.46727E-01 -6.80693E-06  1.0E-07
  9.600E+00  7.00198E-03  3.95587E-18  1.41267E-01 -7.29259E-06  1.0E-07
  9.700E+00  7.14827E-03  3.81027E-18  1.36067E-01 -7.79506E-06  1.0E-07
  9.800E+00  7.29605E-03  3.67155E-18  1.31113E-01 -8.31476E-06  1.0E-07
  9.900E+00  7.44534E-03  3.53932E-18  1.26392E-01 -8.85191E-06  1.0E-07
  1.000E+01  7.59612E-03  3.41323E-18  1.21889E-01 -9.40644E-06  1.0E-07
  1.025E+01  7.97965E-03  3.12260E-18  1.11510E-01 -1.08664E-05  1.0E-07
  1.050E+01  8.37255E-03  2.86340E-18  1.02254E-01 -1.24220E-05  1.0E-07
  1.075E+01  8.77480E-03  2.63153E-18  9.39737E-02 -1.40565E-05  1.0E-07
  1.100E+01  9.18641E-03  2.42352E-18  8.65456E-02 -1.57530E-05  1.0E-07
  1.125E+01  9.60736E-03  2.23640E-18  7.98635E-02 -1.74997E-05  1.0E-07
  1.150E+01  1.00376E-02  2.06764E-18  7.38369E-02 -1.92943E-05  1.0E-07
  1.175E+01  1.04773E-02  1.91507E-18  6.83885E-02 -2.11456E-05  1.0E-07
  1.200E+01  1.09262E-02  1.77684E-18  6.34520E-02 -2.30717E-05  1.0E-07
  1.225E+01  1.13844E-02  1.65133E-18  5.89700E-02 -2.50956E-05  1.0E-07
  1.250E+01  1.18520E-02  1.53714E-18  5.48923E-02 -2.72364E-05  1.0E-07
  1.275E+01  1.23288E-02  1.43304E-18  5.11748E-02 -2.95024E-05  1.0E-07
  1.300E+01  1.28150E-02  1.33794E-18  4.77788E-02 -3.18879E-05  1.0E-07
  1.325E+01  1.33104E-02  1.25088E-18  4.46699E-02 -3.43749E-05  1.0E-07
  1.350E+01  1.38150E-02  1.17102E-18  4.18180E-02 -3.69382E-05  1.0E-07
  1.375E+01  1.43290E-02  1.09762E-18  3.91967E-02 -3.95533E-05  1.0E-07
  1.400E+01  1.48521E-02  1.03003E-18  3.67831E-02 -4.22059E-05  1.0E-07
  1.425E+01  1.53845E-02  9.67703E-19  3.45573E-02 -4.48978E-05  1.0E-07
  1.450E+01  1.59262E-02  9.10148E-19  3.25020E-02 -4.76488E-05  1.0E-07
